1644346747.00
64.000000
-0.00
-0.00
-0.00
-0.00
-0.00
-0.00
-0.00
-0.00
-0.00
-0.00
0.00
0.01
0.01
-0.00
-0.03
-0.05
-0.05
0.00
0.13
0.36
0.66
1.01
1.37
1.72
2.06
2.40
2.79
3.24
3.80
4.42
5.06
5.66
6.20
6.68
7.15
7.68
8.31
9.14
10.09
11.04
11.88
12.56
13.14
13.76
14.65
15.96
17.91
20.32
22.90
25.38
27.58
29.57
31.68
34.32
37.81
42.54
48.15
54.10
59.83
64.97
69.58
74.14
79.34
85.71
93.76
103.00
112.62
121.73
129.77
136.75
143.30
150.75
157.77
166.64
177.95
191.79
206.97
220.57
228.25
225.36
208.53
176.87
132.76
80.05
23.07
-34.94
-92.44
-149.16
-205.23
-260.37
-313.74
-363.87
-409.83
-450.91
-486.50
-515.74
-537.23
-549.22
-549.96
-538.37
-514.21
-478.67
-433.88
-382.45
-327.02
-269.84
-212.63
-156.66
-102.95
-52.37
-5.90
35.58
71.42
101.35
125.50
144.38
158.69
169.15
176.38
180.76
182.59
182.10
179.56
175.31
169.76
163.31
156.32
149.02
141.56
134.00
126.39
118.75
111.16
103.69
96.39
89.33
82.54
76.03
69.80
63.88
58.26
52.96
47.99
43.34
39.02
35.03
31.35
27.98
24.91
22.15
19.68
17.50
15.61
13.99
12.65
11.56
10.71
10.09
9.68
9.45
9.41
9.52
9.78
10.17
10.68
11.31
12.03
12.85
13.76
14.74
15.79
16.93
18.15
19.46
20.85
22.32
23.83
25.34
26.79
28.06
29.03
29.58
29.56
28.84
27.33
24.99
21.84
17.96
13.43
8.47
3.30
-1.83
-6.69
-11.06
-14.75
-17.65
-19.70
-20.90
-21.28
-20.95
-20.05
-18.69
-17.02
-15.16
-13.22
-11.25
-9.30
-7.37
-5.49
-3.66
-1.86
-0.06
1.77
3.67
5.68
7.84
10.18
12.67
15.27
17.96
20.73
23.59
26.54
29.63
32.90
36.47
40.24
44.19
48.33
52.69
57.30
62.19
67.42
73.03
79.12
85.48
91.95
98.48
105.02
111.58
118.19
124.91
131.86
139.16
146.54
153.77
160.62
166.80
171.93
175.50
176.82
174.84
171.22
166.39
160.58
153.95
146.61
138.64
130.18
121.38
112.39
103.45
94.31
84.87
75.08
64.95
54.59
44.23
34.17
24.82
16.63
9.68
4.09
-0.10
-2.93
-4.47
-4.86
-4.29
-2.95
-1.14
0.58
1.61
1.40
-0.48
-4.19
-9.63
-16.41
-24.01
-31.92
-39.95
-48.14
-56.68
-65.81
-75.58
-85.76
-95.82
-105.12
-113.22
-120.11
-126.25
-132.44
-139.54
-148.10
-158.18
-169.41
-181.17
-192.94
-204.54
-216.22
-228.66
-242.81
-259.92
-281.15
-307.00
-336.52
-366.89
-393.66
-412.01
-418.42
-412.17
-395.55
-373.08
-349.60
-328.58
-311.19
-296.50
-282.33
-266.37
-246.86
-222.88
-194.34
-161.93
-127.02
-91.55
-57.74
-27.63
-2.85
15.65
27.65
33.63
34.58
31.83
26.86
21.14
16.15
13.53
15.03
22.30
36.19
56.17
79.88
103.47
122.59
133.72
135.25
127.78
113.60
95.54
75.96
56.20
36.74
17.76
-0.25
-16.26
-28.77
-36.10
-36.76
-29.87
-15.39
5.54
30.61
56.39
79.03
95.16
102.89
102.39
95.80
86.46
77.78
72.23
70.93
73.63
79.23
86.32
93.50
99.56
103.37
103.92
100.43
92.54
80.45
65.00
47.44
29.11
11.15
-5.74
-21.32
-35.81
-49.70
-63.56
-77.74
-92.08
-105.59
-116.48
-122.58
-121.95
-113.62
-98.11
-77.27
-53.83
-30.60
-9.83
7.04
19.28
26.61
28.95
26.51
19.97
10.63
0.32
-8.96
-15.57
-18.65
-18.32
-15.59
-11.95
-8.88
-7.32
-7.20
-7.27
-5.34
1.06
13.72
32.92
56.95
82.38
104.79
119.98
125.10
119.57
105.34
86.52
68.25
55.36
51.03
56.07
68.96
86.47
104.67
119.76
128.59
129.02
120.29
103.44
81.64
59.82
43.41
36.59
40.71
53.69
70.90
87.00
97.85
101.72
99.20
92.18
82.51
71.08
57.82
42.31
24.58
5.52
-13.30
-30.27
-44.33
-55.33
-63.80
-70.49
-75.98
-80.45
-83.93
-86.52
-88.55
-90.37
-91.98
-92.65
-91.08
-85.76
-75.70
-60.95
-42.62
-22.55
-2.79
15.06
30.03
41.77
50.31
55.86
58.60
58.80
56.95
53.86
50.75
49.03
50.03
54.56
62.67
73.49
85.36
96.00
102.98
104.14
98.12
84.65
64.77
40.51
14.41
-11.03
-34.03
-53.66
-69.86
-83.18
-94.44
-104.40
-113.59
-122.12
-129.60
-135.15
-137.54
-135.40
-127.69
-114.02
-94.97
-72.15
-47.86
-24.60
-4.46
11.35
22.59
29.82
34.04
36.36
37.69
38.68
39.73
41.08
42.94
45.51
49.06
53.81
59.87
67.01
74.69
82.12
88.45
93.11
95.94
97.30
97.91
98.68
100.44
103.65
108.18
113.08
116.71
117.11
112.71
103.08
89.40
74.40
61.79
55.28
57.59
69.92
91.79
121.38
156.02
192.67
228.34
260.13
285.26
301.06
305.22
296.19
273.75
239.33
195.85
147.07
96.57
46.75
-1.55
-48.92
-96.68
-146.17
-198.03
-251.98
-306.64
-359.68
-408.18
-449.24
-480.69
-501.70
-512.83
-515.60
-511.64
-502.01
-486.80
-465.46
-437.39
-402.67
-362.34
-318.58
-274.30
-232.47
-195.28
-163.32
-135.14
-107.41
-75.99
-37.36
9.93
64.52
122.42
178.19
226.45
263.17
286.41
296.21
294.04
282.02
262.56
238.05
210.94
183.71
158.69
137.54
120.94
108.31
98.16
88.58
78.04
65.82
52.15
37.93
24.31
12.22
2.19
-5.77
-11.99
-17.05
-21.65
-26.47
-32.07
-38.76
-46.36
-54.02
-60.20
-62.88
-60.08
-50.59
-34.59
-13.75
9.10
30.95
49.42
63.49
73.37
80.04
84.41
86.92
87.45
85.77
81.96
76.76
71.25
66.40
62.61
59.51
56.22
51.97
46.42
39.90
33.13
26.76
20.98
15.40
9.35
2.15
-6.39
-15.98
-25.87
-35.21
-43.36
-50.13
-55.84
-61.17
-66.94
-73.87
-82.26
-91.79
-101.44
-109.58
-114.31
-113.87
-107.16
-94.05
-75.57
-53.61
-30.54
-8.63
10.39
25.60
36.80
44.31
48.69
50.48
50.24
48.44
45.73
42.88
40.72
39.92
40.80
43.22
46.67
50.44
53.88
56.56
58.32
59.09
58.84
57.38
54.52
50.21
44.67
38.40
31.99
25.71
19.37
12.30
3.67
-7.18
-20.41
-35.66
-52.06
-68.31
-82.72
-93.31
-98.02
-95.26
-84.48
-66.62
-44.02
-19.78
3.14
22.79
38.51
50.76
60.42
68.06
73.65
76.53
76.02
71.94
64.91
56.31
47.85
40.94
36.29
33.88
33.11
33.20
33.42
33.07
31.47
28.07
22.71
16.01
9.58
5.78
7.01
14.80
29.07
48.15
69.26
89.66
107.49
122.31
134.75
145.82
156.20
165.80
174.04
180.13
183.66
184.55
182.76
177.90
168.93
154.43
133.27
105.44
72.50
37.37
3.49
-26.38
-51.11
-71.45
-89.42
-107.38
-127.20
-149.95
-176.06
-205.45
-237.25
-269.34
-298.12
-319.07
-328.30
-324.20
-308.45
-285.56
-261.05
-239.27
-221.87
-207.50
-192.72
-173.32
-145.47
-106.55
-55.64
5.94
74.31
143.15
204.57
250.95
277.01
281.63
268.41
244.94
220.76
204.81
203.13
217.57
245.66
281.73
318.65
349.68
369.86
376.56
369.51
350.21
321.32
285.99
247.40
208.36
170.93
136.11
103.71
72.53
40.94
7.65
-27.67
-64.24
-100.48
-134.84
-166.49
-195.82
-224.35
-254.33
-288.14
-327.36
-371.83
-418.90
-463.58
-499.60
-521.39
-526.06
-514.61
-491.41
-462.64
-433.81
-408.17
-386.07
-365.61
-344.14
-319.51
-290.85
-258.77
-224.92
-191.40
-160.18
-132.72
-109.63
-90.88
-75.90
-63.90
-53.93
-44.78
-35.16
-23.81
-10.03
6.08
23.41
40.34
55.36
67.63
77.35
85.42
92.84
100.11
106.86
112.01
114.22
112.48
106.44
96.55
83.82
69.56
55.13
41.69
30.03
20.49
12.85
6.42
0.26
-6.43
-13.82
-21.20
-26.96
-29.00
-25.41
-15.23
1.20
22.13
44.94
66.84
85.59
99.87
109.30
114.12
114.83
111.96
106.07
97.88
88.33
78.58
69.72
62.58
57.47
54.15
52.08
50.68
49.57
48.69
48.08
47.69
47.16
45.84
42.95
37.87
30.46
21.15
10.83
0.62
-8.57
-16.26
-22.52
-27.88
-33.09
-38.85
-45.56
-53.03
-60.43
-66.27
-68.66
-65.71
-56.08
-39.36
-16.33
11.21
40.80
69.77
95.77
117.05
132.65
142.34
146.58
146.35
143.03
138.20
133.29
129.28
126.39
124.00
121.12
116.95
111.57
106.11
102.35
101.86
105.07
110.83
116.65
119.61
117.31
108.70
94.25
75.62
55.07
34.77
16.32
0.36
-13.46
-26.22
-39.30
-53.66
-69.34
-85.21
-99.27
-109.32
-113.69
-111.79
-104.27
-92.77
-79.35
-65.96
-54.19
-45.02
-38.95
-36.05
-36.03
-38.17
-41.43
-44.54
-46.15
-45.09
-40.58
-32.40
-20.79
-6.45
9.73
26.85
44.12
60.87
76.51
90.54
102.55
112.48
120.72
128.18
135.85
144.20
152.45
158.45
158.99
150.78
131.42
100.18
58.25
8.55
-44.65
-96.30
-141.35
-175.59
-196.64
-204.55
-201.71
-191.92
-179.08
-165.96
-153.79
-142.62
-132.31
-123.18
-116.16
-112.17
-111.49
-113.25
-115.65
-116.63
-114.60
-109.00
-100.17
-89.05
-76.63
-63.69
-50.80
-38.53
-27.60
-18.82
-12.87
-9.94
-9.67
-11.14
-13.29
-15.32
-17.00
-18.82
-21.69
-26.51
-33.58
-42.27
-50.83
-56.88
-57.93
-52.25
-39.47
-20.75
1.48
24.35
45.37
62.97
76.69
86.90
94.22
99.16
101.95
102.60
101.16
97.92
93.53
88.88
85.07
83.18
83.94
87.56
93.48
100.46
106.95
111.56
113.60
113.30
111.59
109.72
108.61
108.50
108.77
108.24
105.58
99.88
91.11
80.42
70.00
62.66
61.02
66.42
78.24
93.65
108.23
117.13
116.53
104.74
82.47
52.49
18.53
-15.63
-46.95
-73.42
-94.02
-108.58
-117.52
-121.68
-122.05
-119.64
-115.38
-110.14
-104.78
-100.05
-96.57
-94.57
-93.80
-93.75
-93.83
-93.74
-93.60
-93.80
-94.71
-96.42
-98.71
-101.14
-103.37
-105.17
-106.29
-106.18
-103.87
-98.02
-87.43
-71.60
-51.14
-27.89
-4.53
16.08
31.63
40.83
43.72
41.43
35.84
29.18
23.43
19.96
19.17
20.43
22.24
22.86
21.07
16.85
11.74
8.59
10.75
20.84
39.61
65.08
92.75
116.69
131.31
133.31
122.72
102.84
78.87
56.03
38.06
26.79
22.80
26.38
38.10
58.28
85.80
117.18
146.68
167.76
175.29
167.31
145.59
114.70
80.10
46.35
16.08
-9.85
-31.61
-49.51
-63.59
-73.77
-80.25
-83.91
-86.16
-88.61
-92.32
-97.45
-103.25
-108.47
-111.97
-113.40
-113.44
-113.55
-115.42
-120.06
-127.25
-135.22
-141.07
-141.56
-134.28
-118.41
-95.07
-66.94
-37.37
-9.44
14.77
34.33
49.13
59.42
65.49
67.70
66.75
63.90
60.90
59.54
61.07
65.78
72.89
81.01
88.74
95.30
100.80
105.99
111.73
118.39
125.71
132.98
139.45
144.62
147.93
148.30
143.89
132.20
110.97
79.03
36.69
-14.58
-73.05
-137.05
-204.49
-271.62
-332.33
-378.69
-403.22
-401.84
-375.83
-331.70
-278.87
-226.43
-180.41
-143.03
-113.59
-90.27
-71.66
-57.10
-46.17
-38.07
-31.35
-24.34
-15.89
-5.99
4.20
12.86
18.31
19.78
17.65
13.21
8.04
3.31
-0.65
-4.50
-9.47
-16.74
-26.65
-38.22
-49.14
-56.40
-57.20
-49.97
-34.91
-13.99
9.75
33.08
53.39
69.08
79.66
85.38
87.05
85.65
82.15
77.34
71.84
66.01
60.12
54.44
49.30
44.99
41.63
39.04
36.78
34.29
31.19
27.37
23.01
18.38
13.65
8.77
3.59
-2.05
-8.19
-14.69
-21.56
-28.99
-37.32
-46.69
-56.58
-65.56
-71.40
-71.76
-64.97
-50.75
-30.39
-6.29
18.72
42.07
61.95
77.32
87.80
93.46
94.66
92.07
86.63
79.44
71.71
64.49
58.58
54.38
51.87
50.79
50.72
51.21
51.95
52.65
53.02
52.60
50.87
47.30
41.70
34.35
26.00
17.65
10.21
4.15
-0.71
-5.13
-10.10
-16.41
-24.12
-32.23
-38.65
-40.70
-35.84
-22.58
-1.26
25.83
54.95
81.84
102.85
115.75
119.94
116.30
106.60
92.94
77.32
61.41
46.48
33.40
22.67
14.48
8.73
5.11
3.31
3.04
4.22
6.91
11.15
16.77
23.18
29.41
34.37
37.23
37.90
37.03
35.84
35.64
37.25
40.67
45.03
48.94
50.97
50.20
46.56
41.08
35.65
32.81
35.18
44.77
62.52
87.92
119.03
152.80
185.70
214.31
235.92
248.87
252.77
248.47
237.94
223.88
209.17
196.05
185.31
175.89
165.11
149.51
126.21
94.08
54.23
9.47
-36.75
-81.70
-124.22
-164.73
-204.86
-246.71
-292.38
-343.27
-399.23
-457.67
-513.12
-558.01
-584.63
-587.73
-566.53
-524.91
-469.84
-408.71
-346.90
-286.71
-228.06
-170.07
-112.73
-57.51
-6.96
36.37
71.02
96.92
115.13
127.22
134.54
137.88
137.68
134.52
129.55
124.47
121.08
120.54
122.76
126.46
129.69
130.64
128.33
122.83
115.10
106.34
97.51
89.00
80.69
72.20
63.23
53.69
43.60
33.05
22.13
11.06
0.54
-8.22
-13.68
-14.44
-9.83
-0.25
12.83
27.31
41.04
52.38
60.36
64.67
65.43
63.00
57.94
50.98
42.98
34.86
27.48
21.42
17.00
14.16
12.62
11.93
11.69
11.65
11.70
11.91
12.31
12.88
13.51
14.06
14.50
14.97
15.68
16.73
17.94
18.73
18.44
16.73
13.94
11.20
10.10
12.06
17.62
26.15
35.80
44.08
48.47
47.10
39.15
24.97
6.07
-15.15
-35.79
-52.97
-64.50
-69.32
-67.85
-61.80
-53.69
-46.08
-40.95
-39.05
-39.79
-41.32
-40.91
-35.64
-23.17
-2.63
24.81
55.87
85.69
108.89
121.03
119.79
105.66
81.90
53.57
26.09
3.81
-11.10
-18.76
-21.16
-21.00
-20.72
-21.79
-24.62
-28.90
-33.98
-39.28
-44.29
-48.57
-51.45
-52.14
-49.74
-43.44
-32.57
-16.82
3.74
28.38
55.32
81.51
102.75
114.66
114.09
100.71
77.67
50.98
27.51
12.55
7.96
11.75
19.31
25.54
26.90
22.45
13.61
3.04
-6.70
-14.02
-18.53
-20.69
-21.54
-22.55
-25.57
-32.96
-47.29
-70.52
-103.10
-143.14
-186.39
-227.03
-259.07
-277.87
-281.32
-270.31
-248.17
-219.72
-189.80
-162.10
-138.47
-119.03
-102.77
-88.47
-75.27
-62.93
-51.75
-42.25
-34.98
-30.44
-29.02
-30.81
-35.37
-41.33
-46.52
-48.29
-44.29
-33.26
-15.53
7.02
31.51
54.87
74.72
89.71
99.53
104.52
105.31
102.60
97.12
89.77
81.66
74.01
67.85
63.80
61.81
61.21
61.03
60.26
58.23
54.74
49.93
44.08
37.43
30.13
22.24
13.88
5.20
-3.78
-13.18
-23.30
-34.27
-45.69
-56.28
-64.02
-66.66
-62.51
-51.18
-33.77
-12.64
9.31
29.44
45.93
57.94
65.45
68.93
69.05
66.50
61.98
56.18
49.88
43.82
38.68
34.90
32.66
31.85
32.19
33.20
34.40
35.32
35.60
35.01
33.49
31.08
27.89
23.98
19.31
13.63
6.60
-2.12
-12.72
-24.99
-38.16
-50.85
-61.15
-67.07
-66.95
-60.06
-46.93
-29.29
-9.68
9.19
25.13
36.91
44.27
47.71
48.07
46.16
42.65
38.09
32.95
27.81
23.24
19.76
17.66
16.90
17.14
17.74
18.06
17.50
15.75
12.77
8.76
4.07
-0.93
-5.96
-10.78
-15.29
-19.56
-23.82
-28.55
-34.32
-41.50
-49.75
-57.82
-63.52
-64.36
-58.35
-44.85
-24.99
-1.45
22.11
42.03
55.43
60.71
57.66
47.30
31.42
12.14
-8.38
-28.32
-46.24
-61.06
-72.08
-78.92
-81.63
-80.84
-77.62
-73.41
-69.57
-67.08
-66.30
-66.95
-68.37
-69.82
-70.68
-70.72
-69.96
-68.80
-67.77
-67.46
-68.21
-69.83
-71.29
-70.83
-66.32
-56.02
-39.30
-17.07
8.36
33.93
56.70
74.51
86.35
92.17
92.65
88.85
82.05
73.69
65.19
57.81
52.37
49.14
47.83
47.81
48.32
48.75
48.60
47.53
45.36
42.01
37.57
32.30
26.56
20.65
14.72
8.71
2.38
-4.62
-12.62
-21.84
-32.12
-42.78
-52.51
-59.47
-61.63
-57.46
-46.38
-29.23
-8.01
14.52
35.62
53.12
65.82
73.39
76.16
74.80
70.02
62.59
53.31
43.15
33.15
24.39
17.73
13.65
12.15
12.75
14.63
16.83
18.50
19.06
18.31
16.36
13.49
10.01
6.14
1.91
-2.76
-8.15
-14.62
-22.45
-31.63
-41.59
-51.05
-58.12
-60.69
-57.01
-46.31
-29.04
-6.84
17.80
42.18
63.94
81.50
94.24
102.43
106.90
108.66
108.59
107.38
105.65
104.10
103.48
104.38
106.79
109.86
112.09
111.76
107.64
99.51
88.17
75.06
61.57
48.62
36.45
24.78
13.21
1.45
-10.62
-23.00
-35.68
-48.56
-61.22
-72.75
-81.76
-86.74
-86.54
-80.87
-70.44
-56.75
-41.56
-26.47
-12.65
-0.80
8.72
15.73
20.31
22.91
24.48
26.49
30.56
38.06
49.50
64.12
79.95
94.28
104.45
108.75
107.01
100.68
92.28
84.62
79.76
78.45
80.10
83.06
85.43
85.71
83.25
78.32
71.84
64.87
58.05
51.39
44.15
35.13
22.95
6.46
-14.96
-41.16
-71.12
-102.99
-134.46
-163.04
-186.62
-203.75
-213.89
-217.30
-214.87
-207.80
-197.24
-184.22
-169.52
-153.73
-137.34
-120.83
-104.68
-89.40
-75.41
-62.92
-51.85
-41.94
-32.77
-23.96
-15.37
-7.23
-0.20
4.84
7.26
7.25
6.31
7.17
13.21
27.31
50.66
82.20
118.76
156.08
190.09
218.01
238.81
252.99
262.03
267.60
270.85
271.81
269.29
261.12
244.94
219.30
184.40
142.20
95.81
48.35
1.90
-42.86
-86.46
-130.12
-175.22
-222.63
-272.04
-321.25
-365.98
-400.48
-419.31
-419.43
-401.62
-370.34
-331.87
-291.96
-253.76
-217.59
-181.92
-144.91
-105.72
-64.60
-22.55
19.42
60.36
99.21
134.43
164.00
185.99
199.23
204.14
202.96
199.17
196.39
197.06
201.43
207.51
211.90
211.29
203.79
189.63
171.04
151.24
133.26
118.94
108.50
100.61
93.03
83.41
70.08
52.72
32.45
11.61
-6.95
-20.74
-28.39
-29.96
-26.83
-21.11
-14.97
-10.21
-7.96
-8.94
-13.49
-21.85
-33.88
-49.04
-66.19
-83.76
-100.15
-114.09
-124.94
-132.78
-138.16
-141.82
-144.44
-146.47
-148.18
-149.85
-151.81
-154.53
-158.51
-164.11
-171.28
-179.46
-187.65
-194.67
-199.48
-201.54
-201.00
-198.62
-195.37
-191.87
-187.95
-182.40
-173.33
-158.97
-138.53
-112.88
-84.58
-57.11
-33.74
-16.32
-4.72
3.10
10.37
20.49
36.29
59.54
90.70
128.76
171.16
213.86
251.92
280.57
296.56
299.16
290.34
273.87
253.85
233.39
213.90
195.36
177.24
159.22
141.29
123.31
104.50
83.27
58.04
28.29
-4.69
-37.85
-67.71
-92.12
-111.65
-129.77
-151.59
-181.88
-222.97
-273.64
-329.25
-383.07
-428.17
-459.33
-474.23
-473.73
-461.08
-440.56
-416.04
-390.10
-364.07
-338.46
-313.65
-290.14
-268.32
-247.93
-227.70
-205.67
-179.79
-148.71
-112.29
-71.74
-29.49
11.20
46.81
74.37
92.39
101.49
104.51
105.63
109.09
117.66
131.95
150.50
170.69
189.94
206.42
219.19
227.89
232.37
232.57
228.66
221.29
211.65
201.32
191.90
184.56
179.75
177.15
175.82
174.50
171.90
167.02
159.31
148.69
135.54
120.50
104.33
87.76
71.38
55.54
40.30
25.53
10.85
-3.99
-18.91
-33.22
-45.53
-53.89
-56.40
-51.86
-40.41
-23.79
-5.01
12.47
25.83
33.78
36.89
37.19
37.18
38.77
42.57
47.85
53.04
56.54
57.44
55.67
51.82
46.71
41.09
35.48
30.39
26.43
24.18
24.03
25.86
28.86
31.75
33.19
32.23
28.62
22.71
15.14
6.53
-2.71
-12.11
-20.92
-27.85
-31.32
-29.91
-22.94
-10.92
4.61
21.50
37.56
51.15
61.29
67.57
69.92
68.48
63.58
55.79
46.04
35.51
25.46
16.94
10.54
6.24
3.58
1.83
0.33
-1.24
-2.79
-3.98
-4.37
-3.76
-2.27
-0.43
0.96
0.97
-1.11
-5.49
-11.62
-18.07
-22.72
-23.22
-17.65
-5.15
13.77
37.40
63.36
89.38
113.88
136.21
156.33
174.44
190.48
204.14
215.03
223.05
228.74
233.21
237.97
244.65
254.76
269.45
289.18
313.18
339.13
363.19
380.83
388.19
383.39
367.24
342.80
314.10
284.59
256.18
229.08
202.48
175.53
147.80
119.40
90.55
61.17
30.71
-1.63
-36.50
-73.99
-113.48
-153.70
-193.13
-230.37
-264.50
-295.17
-322.55
-347.22
-370.20
-393.03
-417.80
-446.40
-479.48
-515.17
-548.83
-573.97
-584.58
-577.41
-553.46
-517.65
-476.86
-437.47
-403.61
-376.73
-356.31
-340.84
-328.46
-317.00
-303.88
-286.40
-262.36
-230.93
-192.98
-150.56
-105.92
-60.52
-14.72
31.48
77.36
120.46
156.69
181.58
192.02
187.83
171.98
149.65
126.32
106.13
91.00
80.86
74.54
70.70
68.14
65.79
62.49
57.01
48.56
37.42
25.25
14.84
9.17
10.23
18.38
32.42
50.28
69.94
89.96
109.42
127.63
143.84
157.37
168.07
176.72
184.98
194.96
208.57
226.88
249.81
275.90
302.40
325.55
341.39
346.86
340.88
324.89
302.42
277.83
254.59
234.33
216.58
199.60
181.56
161.38
139.12
115.56
91.71
68.29
45.48
22.92
-0.22
-25.24
-53.75
-87.13
-125.61
-167.14
-206.90
-238.00
-253.42
-248.79
-224.32
-185.18
-139.78
-96.87
-62.66
-39.58
-26.73
-21.55
-21.62
-25.42
-31.87
-39.58
-46.09
-48.12
-42.39
-26.52
0.55
38.64
86.54
141.94
200.94
257.89
306.07
339.32
353.98
350.11
331.41
303.52
271.93
240.42
210.80
183.56
158.93
137.20
118.31
101.35
84.34
64.84
41.13
13.01
-17.93
-49.02
-77.72
-102.85
-125.12
-146.76
-170.52
-198.34
-230.51
-265.65
-301.44
-335.62
-367.13
-396.38
-425.06
-455.64
-490.77
-532.65
-582.10
-637.47
-693.91
-743.70
-778.04
-789.89
-776.61
-740.94
-689.94
-632.14
-574.55
-520.93
-472.03
-427.04
-385.32
-347.03
-312.79
-282.76
-256.07
-231.06
-206.15
-180.66
-155.06
-130.75
-109.26
-91.44
-77.09
-65.13
-54.06
-42.70
-30.63
-18.31
-6.78
2.94
10.25
15.24
18.63
21.38
24.31
27.82
31.93
36.34
40.75
45.06
49.35
53.83
58.61
63.64
68.69
73.53
78.05
82.37
86.76
91.50
96.68
102.14
107.49
112.40
116.82
121.12
126.00
132.25
140.34
150.22
161.29
172.73
183.77
194.13
204.11
214.37
225.81
239.28
255.47
274.61
296.13
318.27
338.01
351.61
355.73
348.65
330.98
305.48
275.91
245.62
216.50
188.97
162.74
137.85
115.33
96.96
84.49
78.63
78.63
82.51
87.81
92.54
95.61
96.87
96.56
94.74
91.06
84.81
75.47
63.20
48.94
34.28
20.90
10.10
2.59
-1.56
-2.69
-1.37
1.75
5.94
10.47
14.67
17.98
20.05
20.73
20.03
18.01
14.69
10.05
4.11
-2.97
-10.67
-18.03
-23.61
-25.70
-22.68
-13.45
2.23
23.63
49.04
75.99
101.50
122.38
135.62
138.91
131.22
113.25
87.48
57.89
28.90
4.47
-12.96
-22.76
-26.00
-24.76
-21.35
-17.74
-15.18
-14.22
-14.86
-16.75
-19.42
-22.44
-25.62
-29.12
-33.45
-39.31
-47.26
-57.32
-68.68
-79.67
-88.03
-91.45
-88.31
-78.18
-62.04
-42.05
-20.95
-1.43
14.49
25.65
31.68
32.86
29.78
23.31
14.47
4.45
-5.50
-14.26
-21.06
-25.66
-28.35
-29.85
-31.01
-32.57
-34.91
-37.99
-41.50
-45.05
-48.37
-51.49
-54.59
-57.88
-61.35
-64.74
-67.45
-68.75
-67.87
-63.98
-56.24
-43.89
-26.37
-3.72
23.15
52.38
81.44
107.65
128.93
144.16
153.42
157.56
157.83
155.32
150.78
144.70
137.46
129.52
121.36
113.39
105.72
98.18
90.40
82.05
73.04
63.57
54.05
44.82
35.97
27.30
18.46
9.17
-0.56
-10.36
-19.67
-28.05
-35.45
-42.26
-49.02
-56.02
-62.83
-68.19
-70.30
-67.46
-58.76
-44.52
-26.20
-6.02
13.73
31.22
45.30
55.48
61.72
64.30
63.63
60.26
54.88
48.25
41.18
34.42
28.62
24.24
21.56
20.59
21.06
22.48
24.22
25.68
26.36
25.95
24.32
21.48
17.58
12.84
7.61
2.17
-3.30
-8.86
-14.82
-21.66
-29.74
-38.92
-48.31
-56.23
-60.60
-59.57
-52.25
-39.02
-21.56
-2.29
16.31
32.29
44.54
52.75
57.14
58.19
56.45
52.50
46.99
40.57
33.91
27.59
22.13
17.86
14.97
13.48
13.27
14.04
15.32
16.57
17.21
16.80
15.09
12.15
8.30
3.97
-0.46
-4.75
-8.92
-13.22
-18.09
-23.97
-31.06
-39.05
-46.93
-53.06
-55.51
-52.71
-44.01
-30.00
-12.33
6.67
24.76
40.19
51.96
59.76
63.70
64.17
61.69
56.88
50.53
43.49
36.61
30.66
26.20
23.54
22.68
23.36
25.05
27.11
28.92
29.93
29.79
28.38
25.71
21.92
17.21
11.80
5.92
-0.29
-6.79
-13.66
-21.03
-28.84
-36.65
-43.54
-48.25
-49.51
-46.52
-39.30
-28.81
-16.65
-4.60
5.83
13.74
18.87
21.36
21.50
19.57
15.79
10.43
3.97
-2.80
-8.98
-13.70
-16.45
-17.22
-16.51
-15.09
-13.72
-12.95
-12.98
-13.76
-15.08
-16.79
-18.74
-20.89
-23.28
-26.08
-29.46
-33.56
-38.31
-43.20
-47.26
-49.15
-47.55
-41.58
-31.16
-17.16
-1.17
14.93
29.49
41.49
50.58
56.95
61.02
63.17
63.60
62.46
59.93
56.43
52.50
48.77
45.76
43.72
42.59
42.01
41.43
40.32
38.27
35.10
30.89
25.90
20.44
14.73
8.81
2.56
-4.29
-11.94
-20.47
-29.70
-39.12
-47.85
-54.74
-58.52
-58.01
-52.55
-42.19
-27.83
-11.04
6.28
22.39
36.03
46.47
53.51
57.29
58.15
56.63
53.38
49.24
45.12
41.88
40.13
40.06
41.32
43.05
44.05
43.13
39.49
33.04
24.44
14.91
5.84
-1.70
-7.19
-10.75
-13.11
-15.38
-18.77
-24.23
-31.96
-41.15
-49.92
-55.87
-56.82
-51.67
-40.73
-25.75
-9.16
6.52
19.30
27.85
31.52
30.26
24.64
15.81
5.42
-4.75
-13.29
-19.49
-23.47
-25.80
-27.12
-27.83
-28.02
-27.69
-27.07
-26.68
-27.19
-29.05
-32.22
-36.04
-39.57
-41.89
-42.61
-41.97
-40.69
-39.67
-39.45
-39.98
-40.50
-39.72
-36.06
-28.02
-14.44
5.27
30.87
61.20
94.23
127.41
158.32
185.30
207.81
226.21
241.03
252.10
258.17
257.23
247.43
228.06
200.08
165.71
127.44
86.99
44.84
0.76
-45.10
-91.22
-134.48
-171.01
-197.67
-213.36
-219.42
-218.84
-214.78
-209.18
-202.28
-193.19
-181.22
-166.86
-152.15
-139.78
-131.82
-128.58
-128.35
-128.13
-124.85
-116.60
-103.31
-86.45
-68.41
-51.51
-37.40
-26.81
-19.70
-15.71
-14.39
-15.47
-18.65
-23.52
-29.34
-35.11
-39.72
-42.27
-42.29
-39.88
-35.55
-30.11
-24.35
-18.94
-14.35
-10.74
-7.94
-5.39
-2.18
2.75
10.31
20.89
34.12
48.85
63.42
76.13
85.85
92.65
98.18
105.74
119.63
143.76
179.74
225.31
273.97
316.38
343.30
348.86
332.61
299.43
257.31
214.01
174.39
139.45
107.04
73.58
35.75
-8.35
-58.59
-112.31
-164.28
-207.25
-233.57
-237.69
-218.64
-181.18
-134.98
-91.86
-62.26
-52.56
-64.23
-94.62
-138.89
-191.73
-248.39
-304.81
-357.26
-402.14
-436.03
-456.20
-461.27
-451.65
-429.38
-397.59
-359.54
-317.81
-273.80
-227.88
-179.98
-130.37
-80.31
-32.08
11.55
48.24
76.94
98.25
114.20
127.29
139.37
150.81
160.35
165.96
165.92
159.99
149.56
137.02
124.65
113.65
103.85
94.25
83.95
72.78
61.50
51.32
43.18
37.14
32.28
27.14
20.35
11.32
0.64
-10.00
-18.30
-22.09
-20.10
-12.35
-0.16
14.31
28.73
41.22
50.64
56.58
59.07
58.37
54.81
48.89
41.31
33.07
25.32
19.04
14.80
12.56
11.76
11.64
11.56
11.20
10.63
10.08
9.74
9.58
9.38
8.84
7.75
6.11
4.08
1.92
-0.12
-1.94
-3.62
-5.48
-7.98
-11.55
-16.21
-21.44
-26.07
-28.61
-27.68
-22.55
-13.42
-1.29
12.30
25.75
37.73
47.40
54.33
58.47
60.06
59.60
57.74
55.21
52.72
50.76
49.58
49.11
49.05
49.03
48.68
47.91
46.88
45.95
45.43
45.41
45.62
45.54
44.67
42.81
40.17
37.23
34.55
32.46
30.93
29.70
28.39
26.77
24.79
22.63
20.57
18.91
17.89
17.64
18.13
19.24
20.85
22.91
25.49
28.67
32.42
36.30
39.56
41.30
40.87
38.24
34.13
29.79
26.57
25.41
26.56
29.54
33.39
37.09
39.84
41.23
41.25
40.15
38.22
35.72
32.76
29.34
25.42
20.97
16.08
10.96
5.86
1.10
-3.08
-6.62
-9.73
-12.99
-17.10
-22.60
-29.38
-36.48
-42.27
-45.01
-43.66
-38.41
-30.69
-22.66
-16.41
-13.41
-14.24
-18.82
-26.62
-36.91
-48.85
-61.36
-73.34
-83.72
-91.70
-96.83
-98.98
-98.24
-94.88
-89.28
-82.00
-73.53
-64.24
-54.22
-43.46
-32.21
-21.32
-12.42
-7.45
-8.07
-14.94
-27.31
-43.18
-59.79
-74.29
-84.40
-88.69
-86.72
-78.87
-66.15
-49.85
-31.29
-11.72
7.78
26.08
42.02
54.45
62.42
65.52
64.04
58.93
51.55
43.31
35.37
28.51
23.14
19.40
17.19
16.22
15.99
15.90
15.30
13.63
10.60
6.18
0.64
-5.55
-11.90
-17.95
-23.38
-28.14
-32.44
-36.73
-41.64
-47.69
-55.08
-63.41
-71.61
-78.06
-81.14
-79.75
-73.72
-63.99
-52.22
-40.36
-30.04
-22.39
-17.91
-16.66
-18.45
-22.86
-29.34
-37.08
-45.09
-52.41
-58.18
-61.92
-63.47
-62.95
-60.62
-56.82
-51.91
-46.27
-40.35
-34.48
-28.91
-23.66
-18.51
-13.17
-7.41
-1.26
4.84
10.07
13.40
13.82
10.74
4.22
-4.82
-14.72
-23.27
-28.30
-28.16
-22.18
-10.85
4.31
21.19
37.63
51.91
63.06
70.87
75.69
78.15
78.89
78.44
77.24
75.79
74.74
74.92
77.14
81.99
89.69
99.90
111.74
123.85
134.64
142.59
146.61
146.31
142.07
134.87
125.96
116.43
106.86
97.32
87.34
76.42
64.33
51.40
38.63
27.41
19.08
14.45
13.48
15.24
18.22
20.93
22.30
21.91
19.89
16.64
12.45
7.47
1.73
-4.59
-11.05
-16.94
-21.49
-24.18
-24.87
-23.95
-22.12
-20.15
-18.69
-18.07
-18.33
-19.38
-21.09
-23.41
-26.36
-29.97
-34.22
-39.08
-44.54
-50.67
-57.57
-65.15
-72.86
-79.63
-84.00
-84.55
-80.45
-71.80
-59.74
-46.11
-32.85
-21.55
-13.11
-7.78
-5.38
-5.52
-7.77
-11.66
-16.61
-21.86
-26.56
-29.86
-31.16
-30.17
-27.03
-22.17
-16.25
-9.94
-3.80
1.73
6.33
9.76
11.88
12.79
12.91
13.00
13.87
16.03
19.42
23.37
26.92
29.29
30.21
30.01
29.54
29.87
32.15
37.37
46.12
58.17
72.08
85.19
94.22
96.28
89.98
76.11
57.41
37.70
20.73
9.11
3.83
4.34
9.12
16.32
24.47
32.84
41.50
51.21
63.07
78.21
97.33
120.04
144.44
166.82
182.19
185.59
173.68
146.11
105.92
58.64
10.56
-33.01
-68.85
-95.89
-114.48
-125.57
-130.29
-129.91
-126.06
-120.82
-116.37
-114.47
-115.91
-120.35
-126.48
-132.68
-137.64
-140.80
-142.37
-143.05
-143.50
-144.09
-144.71
-145.05
-144.79
-143.86
-142.58
-141.39
-140.75
-140.89
-141.79
-143.25
-145.04
-146.95
-148.71
-149.80
-149.34
-146.05
-138.59
-125.98
-108.14
-86.37
-63.49
-43.51
-30.67
-27.94
-35.58
-50.40
-66.14
-75.17
-70.65
-48.53
-8.58
45.61
107.32
168.02
218.78
252.21
264.19
255.23
230.63
199.01
169.80
150.42
144.25
150.32
164.32
180.63
194.26
202.05
203.24
199.00
191.65
183.71
176.93
171.98
168.49
165.36
161.03
153.85
142.23
125.04
102.06
74.29
43.81
13.15
-15.62
-41.63
-65.28
-87.82
-110.54
-134.03
-157.84
-180.63
-200.63
-216.22
-226.43
-231.27
-231.69
-229.44
-226.45
-224.28
-223.71
-224.66
-226.38
-227.81
-227.94
-225.89
-220.89
-212.06
-198.42
-179.01
-153.27
-121.49
-84.94
-45.82
-6.73
29.77
61.72
87.79
107.20
119.62
125.10
124.19
118.10
108.69
98.19
88.78
82.13
79.10
79.71
83.24
88.50
94.05
98.45
100.51
99.51
95.28
88.13
78.65
67.55
55.52
43.18
31.13
19.85
9.67
0.55
-7.93
-16.61
-26.42
-37.89
-50.66
-63.19
-72.98
-77.31
-74.29
-63.66
-47.10
-27.76
-9.19
5.78
15.76
20.77
21.66
19.43
14.74
7.94
-0.64
-10.34
-20.09
-28.56
-34.61
-37.62
-37.68
-35.49
-32.05
-28.35
-25.09
-22.68
-21.27
-20.94
-21.83
-24.16
-28.08
-33.51
-40.02
-46.77
-52.81
-57.31
-59.88
-60.67
-60.35
-59.80
-59.88
-61.22
-64.08
-68.28
-73.14
-77.41
-79.34
-77.09
-69.15
-54.97
-35.23
-11.77
12.82
35.95
55.56
70.46
80.26
85.16
85.66
82.52
76.70
69.43
62.11
56.02
52.05
50.51
51.14
53.29
56.27
59.52
62.68
65.32
66.84
66.33
62.76
55.36
43.98
29.25
12.47
-4.83
-21.40
-36.72
-51.01
-65.08
-79.88
-96.00
-113.19
-129.92
-143.30
-149.52
-144.79
-126.68
-95.25
-53.43
-6.51
39.25
78.22
106.65
123.25
129.04
126.64
119.50
111.00
103.80
99.28
97.45
97.04
96.12
92.73
85.46
73.84
58.24
39.71
19.59
-0.77
-20.31
-38.40
-54.82
-69.64
-82.91
-94.54
-104.26
-111.75
-116.86
-119.78
-121.11
-121.75
-122.66
-124.53
-127.35
-130.22
-131.36
-128.54
-119.77
-104.14
-82.19
-56.01
-28.51
-2.61
19.54
36.90
49.40
57.55
62.01
63.45
62.57
60.29
57.64
55.72
55.33
56.73
59.64
63.36
67.17
70.63
73.78
77.03
80.82
85.27
90.03
94.39
97.65
99.51
100.27
100.75
101.87
104.20
107.62
111.35
114.24
115.24
113.92
110.60
106.37
102.78
101.46
103.81
110.75
122.35
137.61
154.33
169.33
179.26
181.72
176.18
164.28
149.12
133.84
120.48
109.42
99.93
91.13
82.90
75.92
71.03
68.27
66.39
63.16
56.25
44.26
27.29
6.77
-15.12
-36.31
-55.43
-71.95
-86.04
-98.07
-108.30
-116.58
-122.47
-125.57
-125.81
-123.68
-120.13
-116.25
-112.97
-110.79
-109.74
-109.48
-109.37
-108.58
-106.18
-101.25
-93.16
-81.79
-67.71
-52.05
-36.27
-21.72
-9.36
0.33
7.27
11.66
13.80
14.17
13.38
12.11
10.98
10.35
10.27
10.43
10.41
9.89
8.86
7.74
7.21
8.01
10.62
15.08
20.91
27.25
33.03
37.37
39.70
39.89
38.11
34.72
30.01
24.12
16.99
8.46
-1.59
-13.07
-25.54
-38.10
-49.49
-58.30
-63.29
-63.79
-59.96
-52.81
-43.87
-34.79
-26.95
-21.21
-18.00
-17.38
-19.17
-22.96
-28.14
-33.82
-39.07
-43.05
-45.23
-45.54
-44.24
-41.77
-38.58
-34.96
-31.11
-27.15
-23.20
-19.45
-16.08
-13.33
-11.40
-10.40
-10.34
-11.12
-12.53
-14.33
-16.39
-18.72
-21.50
-25.05
-29.56
-34.97
-40.72
-45.83
-48.99
-49.02
-45.22
-37.69
-27.28
-15.34
-3.33
7.60
16.72
23.66
28.24
30.26
29.56
26.07
19.99
11.83
2.40
-7.32
-16.33
-23.73
-28.91
-31.64
-32.24
-31.50
-30.43
-29.96
-30.59
-32.22
-34.17
-35.45
-35.00
-32.05
-26.33
-18.18
-8.46
1.65
10.92
18.39
23.52
26.31
27.24
27.19
27.24
28.60
32.29
38.88
48.25
59.42
70.79
80.55
87.26
90.22
89.57
86.01
80.44
73.61
65.90
57.46
48.35
38.79
29.29
20.53
13.20
7.75
4.19
2.12
0.80
-0.51
-2.35
-4.92
-8.09
-11.54
-15.02
-18.38
-21.72
-25.26
-29.21
-33.81
-39.23
-45.49
-52.30
-58.96
-64.26
-66.76
-65.21
-59.00
-48.47
-34.83
-19.82
-5.17
7.83
18.44
26.38
31.65
34.28
34.37
32.11
27.91
22.48
16.67
11.43
7.48
5.16
4.39
4.63
5.20
5.49
5.19
4.38
3.32
2.30
1.36
0.25
-1.47
-4.30
-8.49
-13.95
-20.15
-26.23
-31.05
-33.51
-32.73
-28.36
-20.67
-10.51
0.83
11.99
21.79
29.42
34.49
37.01
37.18
35.29
31.64
26.52
20.37
13.80
7.57
2.46
-1.01
-2.69
-2.92
-2.30
-1.54
-1.22
-1.68
-3.00
-5.16
-8.01
-11.40
-15.20
-19.30
-23.77
-28.82
-34.77
-41.88
-50.02
-58.43
-65.73
-70.11
-69.98
-64.41
-53.58
-38.71
-21.68
-4.54
11.00
23.82
33.36
39.48
42.32
42.16
39.41
34.64
28.57
22.06
16.06
11.50
8.99
8.69
10.19
12.63
15.04
16.64
17.10
16.51
15.19
13.36
11.04
8.02
4.01
-1.16
-7.55
-15.05
-23.44
-32.32
-40.94
-48.10
-52.27
-51.95
-46.22
-35.19
-20.14
-3.24
13.10
26.86
36.89
42.97
45.53
45.24
42.69
38.29
32.43
25.57
18.39
11.73
6.43
3.03
1.68
2.04
3.43
5.04
6.15
6.33
5.43
3.55
0.90
-2.26
-5.79
-9.63
-13.86
-18.60
-24.04
-30.33
-37.47
-45.06
-52.13
-57.24
-58.68
-55.13
-46.17
-32.55
-16.04
1.09
16.74
29.48
38.65
44.28
46.69
46.32
43.64
39.24
33.83
28.29
23.46
20.00
18.31
18.40
19.99
22.60
25.61
28.42
30.50
31.47
31.15
29.56
26.91
23.52
19.72
15.82
11.99
8.27
4.53
0.50
-4.11
-9.49
-15.40
-21.10
-25.31
-26.46
-23.17
-14.73
-1.49
15.19
33.17
50.23
64.52
75.03
81.63
84.89
85.73
85.13
83.94
82.81
82.17
82.35
83.65
86.43
91.13
98.13
107.61
119.37
132.72
146.68
160.18
172.44
183.21
192.77
201.84
211.44
222.75
236.95
254.78
275.91
298.44
318.91
333.15
337.66
331.04
314.48
291.35
265.76
241.07
219.05
199.97
183.37
168.84
156.36
146.07
137.70
130.37
122.72
113.45
101.90
88.29
73.56
58.93
45.20
32.39
19.72
6.02
-9.77
-28.03
-48.19
-69.02
-89.05
-107.33
-123.80
-139.30
-155.25
-172.92
-192.81
-214.39
-236.37
-257.27
-276.04
-292.57
-307.56
-322.28
-338.25
-357.12
-380.46
-409.04
-441.78
-474.91
-501.96
-515.34
-508.76
-479.35
-428.14
-358.90
-276.35
-185.31
-91.34
-2.12
72.27
121.20
137.30
119.98
76.49
19.73
-36.07
-79.38
-103.35
-105.53
-87.03
-51.79
-6.55
39.45
76.08
95.18
93.21
72.27
38.70
0.01
-37.98
-72.47
-102.89
-128.83
-148.18
-156.85
-150.37
-126.47
-87.47
-40.84
2.41
31.27
38.63
23.66
-8.42
-49.28
-91.28
-130.37
-166.23
-200.04
-231.26
-255.73
-266.36
-256.25
-222.70
-169.81
-108.38
-52.45
-14.45
-0.99
-11.16
-38.11
-72.76
-107.46
-137.92
-162.85
-181.95
-194.06
-196.86
-188.04
-167.14
-136.59
-101.06
-65.54
-33.46
-5.80
18.26
40.05
60.36
79.13
95.91
110.48
123.36
135.68
148.79
163.81
181.17
200.40
220.11
238.08
251.83
259.33
259.96
255.21
248.88
246.25
252.40
270.00
297.65
329.53
356.95
371.35
367.58
345.92
311.78
273.15
237.29
207.94
184.62
163.85
141.24
113.28
78.13
35.70
-12.07
-60.83
-103.76
-132.73
-141.07
-126.72
-94.11
-53.48
-17.49
3.34
4.05
-13.88
-44.34
-79.81
-114.13
-143.72
-167.12
-183.48
-191.29
-188.01
-170.88
-138.60
-93.06
-40.41
9.99
48.11
66.83
64.70
46.27
19.86
-6.19
-26.72
-40.97
-51.32
-60.89
-71.42
-82.65
-93.26
-102.16
-109.48
-116.31
-123.80
-132.28
-140.92
-148.18
-152.75
-154.33
-153.85
-153.11
-153.92
-157.02
-161.32
-163.83
-160.45
-147.49
-123.39
-89.77
-51.40
-14.84
13.65
30.01
33.46
26.15
12.05
-4.55
-20.16
-32.62
-41.14
-45.97
-48.02
-48.37
-47.73
-45.93
-41.63
-32.54
-16.32
8.18
39.90
75.11
108.39
134.09
148.21
149.42
139.08
120.38
96.95
71.81
46.97
23.55
2.14
-16.89
-33.44
-47.73
-60.25
-71.53
-81.81
-90.90
-98.25
-103.20
-105.17
-103.62
-97.90
-87.28
-71.34
-50.54
-26.75
-3.18
16.38
28.95
33.60
32.00
27.99
26.27
31.09
45.28
69.98
104.59
146.72
192.06
234.39
266.59
282.17
277.32
252.12
210.41
158.07
100.68
41.71
-17.74
-77.64
-137.25
-193.85
-242.90
-279.42
-299.80
-302.99
-290.51
-265.54
-231.78
-192.67
-151.07
-109.64
-71.13
-38.28
-13.45
2.12
8.70
8.07
2.96
-3.75
-9.81
-14.07
-16.48
-17.59
-18.05
-18.17
-17.75
-16.28
-13.30
-8.71
-3.00
2.81
7.43
9.68
8.87
5.03
-1.07
-8.19
-15.03
-20.68
-24.91
-28.14
-31.28
-35.33
-41.06
-48.70
-57.80
-67.20
-75.08
-79.21
-77.40
-68.07
-50.83
-26.77
1.66
31.24
58.66
81.24
97.36
106.48
108.92
105.62
97.89
87.28
75.51
64.28
55.13
49.13
46.70
47.53
50.70
54.91
58.93
61.92
63.55
63.90
63.15
61.25
57.80
52.22
44.17
33.90
22.30
10.64
0.05
-9.00
-16.84
-24.51
-33.27
-44.10
-57.16
-71.56
-85.27
-95.52
-99.45
-95.01
-81.66
-60.72
-35.10
-8.34
16.29
36.66
51.97
62.41
68.58
71.03
70.18
66.57
61.12
55.20
50.41
48.01
48.56
51.76
56.67
62.10
67.10
71.15
74.10
75.93
76.44
75.13
71.30
64.47
54.71
42.92
30.63
19.53
10.80
4.65
0.12
-4.52
-11.11
-20.82
-33.59
-47.96
-61.36
-70.77
-73.52
-68.16
-54.98
-36.11
-14.99
4.57
19.51
28.38
31.62
31.17
29.64
29.26
31.28
35.63
41.22
46.60
50.51
52.34
52.14
50.26
47.00
42.20
35.37
25.96
13.78
-0.68
-16.43
-32.39
-47.83
-62.67
-77.26
-91.79
-105.91
-118.74
-129.42
-137.93
-145.40
-153.65
-164.11
-176.60
-188.83
-196.98
-197.08
-186.73
-166.09
-137.75
-105.69
-73.91
-45.23
-21.07
-1.76
12.97
23.41
29.79
32.42
31.85
28.93
24.80
20.54
16.96
14.52
13.39
13.66
15.47
19.01
24.32
31.15
38.82
46.22
52.15
55.58
56.02
53.60
49.03
43.27
37.21
31.42
25.98
20.60
14.70
7.69
-0.74
-10.44
-20.56
-29.54
-35.42
-36.25
-30.79
-18.97
-2.10
17.51
37.14
54.39
67.75
76.57
80.99
81.50
78.71
73.22
65.70
56.96
47.96
39.76
33.24
28.93
26.91
26.86
28.24
30.45
32.97
35.29
36.92
37.44
36.55
34.22
30.74
26.66
22.60
19.00
15.96
13.16
10.03
5.93
0.50
-6.01
-12.62
-17.68
-19.24
-15.60
-5.82
9.83
30.05
52.82
75.98
97.62
116.37
131.38
142.18
148.62
150.79
149.14
144.48
137.94
130.86
124.49
119.83
117.32
116.88
117.93
119.66
121.24
121.96
121.36
119.13
115.06
109.00
100.91
90.96
79.60
67.54
55.54
44.26
33.95
24.43
15.06
4.96
-6.61
-19.88
-34.25
-48.22
-59.70
-66.60
-67.53
-62.29
-51.98
-38.48
-23.79
-9.40
3.87
15.72
25.77
33.29
37.22
36.62
31.40
22.71
12.86
4.61
0.16
0.33
4.34
10.21
15.74
19.46
21.19
21.97
23.54
27.50
34.86
45.70
59.17
73.46
85.96
93.53
93.13
82.67
61.71
31.56
-5.32
-46.54
-90.98
-139.18
-192.29
-250.26
-309.93
-364.65
-405.71
-425.24
-419.26
-389.22
-341.44
-284.73
-227.42
-175.28
-131.01
-95.09
-67.09
-46.46
-32.56
-24.04
-18.52
-12.83
-3.96
9.86
28.49
49.88
70.93
88.61
100.99
107.70
109.66
108.45
105.58
101.95
97.89
93.31
88.10
82.27
76.08
69.82
63.70
57.66
51.41
44.50
36.62
27.89
19.01
11.16
5.62
3.37
4.63
8.81
14.69
20.81
25.93
29.27
30.53
29.67
26.82
22.11
15.76
8.10
-0.26
-8.51
-15.78
-21.31
-24.73
-26.07
-25.70
-24.14
-21.88
-19.25
-16.53
-14.03
-12.16
-11.46
-12.26
-14.45
-17.32
-19.72
-20.37
-18.44
-13.89
-7.56
-0.89
4.51
7.36
7.01
3.65
-1.69
-7.36
-11.31
-11.56
-6.67
3.82
19.11
37.19
55.25
70.18
79.36
81.24
75.84
64.78
50.93
37.63
27.74
22.88
23.08
27.10
33.01
38.93
43.45
45.69
45.14
41.54
34.89
25.56
14.42
2.63
-8.69
-18.83
-27.61
-35.24
-42.02
-48.10
-53.45
-57.94
-61.55
-64.50
-67.23
-70.23
-73.74
-77.58
-80.99
-82.68
-81.15
-75.13
-64.07
-48.45
-29.74
-10.02
8.57
24.33
36.32
44.32
48.64
49.85
48.66
45.84
42.15
38.33
34.97
32.44
30.89
30.25
30.42
31.22
32.46
33.83
34.86
34.96
33.57
30.37
25.53
19.76
14.15
9.93
8.16
9.40
13.54
19.73
26.42
31.72
33.84
31.78
25.76
17.44
9.61
5.41
7.40
16.73
32.89
53.93
77.06
99.44
118.68
133.11
141.85
144.68
141.98
134.57
123.67
110.68
97.07
84.08
72.49
62.43
53.44
44.71
35.31
24.56
12.16
-1.82
-17.15
-33.58
-50.99
-69.29
-88.25
-107.37
-125.96
-143.31
-158.93
-172.61
-184.26
-193.56
-199.71
-201.41
-197.30
-186.50
-169.15
-146.55
-120.82
-94.31
-69.02
-46.33
-27.03
-11.46
0.26
8.18
12.63
14.22
13.80
12.37
10.85
9.92
9.99
11.19
13.45
16.57
20.17
23.79
26.87
28.84
29.28
28.10
25.48
21.85
17.67
13.27
8.74
3.92
-1.51
-7.89
-15.47
-24.16
-33.32
-41.66
-47.43
-48.81
-44.66
-34.95
-20.99
-4.98
10.61
23.82
33.59
39.75
42.71
43.05
41.27
37.78
33.02
27.52
21.97
17.12
13.62
11.86
11.87
13.27
15.35
17.27
18.29
17.94
16.13
13.08
9.17
4.79
0.15
-4.69
-9.82
-15.40
-21.63
-28.71
-36.80
-45.71
-54.75
-62.57
-67.43
-67.61
-62.09
-50.91
-35.30
-17.25
1.04
17.76
31.74
42.48
49.93
54.25
55.66
54.47
51.11
46.24
40.68
35.35
31.07
28.38
27.43
27.93
29.28
30.74
31.67
31.65
30.52
28.26
24.98
20.85
16.13
11.19
6.42
2.12
-1.72
-5.47
-9.79
-15.25
-21.88
-28.90
-34.62
-36.92
-33.89
-24.59
-9.48
9.55
29.77
48.21
62.52
71.28
74.20
71.85
65.31
55.90
44.92
33.56
22.85
13.59
6.35
1.40
-1.27
-1.97
-1.16
0.63
2.89
5.22
7.31
8.86
9.63
9.40
8.15
5.99
3.26
0.38
-2.31
-4.68
-6.89
-9.36
-12.65
-17.25
-23.27
-30.24
-36.99
-41.78
-42.81
-38.73
-29.20
-15.08
1.81
19.20
34.95
47.52
56.16
60.70
61.39
58.69
53.19
45.68
37.11
28.51
20.89
14.99
11.20
9.48
9.46
10.58
12.19
13.70
14.64
14.66
13.49
10.98
7.17
2.28
-3.27
-8.91
-14.10
-18.42
-21.77
-24.27
-26.40
-28.76
-32.02
-36.58
-42.29
-48.22
-52.75
-54.03
-50.51
-41.68
-28.23
-11.97
4.77
19.83
31.72
39.78
44.04
44.98
43.19
39.34
34.10
28.19
22.41
17.51
14.06
12.35
12.27
13.45
15.44
17.89
20.54
23.29
25.99
28.28
29.72
29.83
28.35
25.40
21.48
17.25
13.37
10.21
7.77
5.70
3.41
0.27
-4.16
-9.89
-16.35
-22.35
-26.43
-27.22
-23.96
-16.83
-6.97
3.91
13.97
21.79
26.58
28.21
27.04
23.64
18.68
12.85
6.91
1.55
-2.60
-5.13
-5.92
-5.14
-3.18
-0.50
2.47
5.36
7.91
9.91
11.08
11.21
10.13
7.81
4.44
0.33
-4.16
-8.72
-13.17
-17.49
-21.82
-26.33
-31.14
-36.13
-40.86
-44.52
-46.09
-44.66
-39.73
-31.43
-20.59
-8.54
3.23
13.42
21.07
25.69
27.20
25.85
22.15
16.85
10.79
4.81
-0.41
-4.43
-7.08
-8.44
-8.70
-8.03
-6.47
-3.96
-0.44
3.90
8.58
12.84
15.92
17.44
17.67
17.51
18.10
20.31
24.24
29.15
33.91
37.67
40.47
43.53
49.02
59.47
77.11
103.24
137.70
178.42
221.33
260.84
291.01
307.23
307.61
293.59
269.18
239.24
207.72
176.57
145.91
115.05
83.62
51.97
20.95
-8.98
-38.27
-68.27
-100.71
-137.05
-178.28
-224.62
-275.33
-328.24
-379.47
-423.78
-455.81
-471.81
-470.96
-455.68
-430.40
-399.73
-366.83
-332.92
-298.03
-262.14
-226.08
-191.53
-160.26
-133.38
-110.94
-92.27
-76.62
-63.66
-53.52
-46.63
-43.18
-42.75
-44.21
-46.04
-46.79
-45.59
-42.45
-38.21
-34.18
-31.51
-30.77
-31.73
-33.54
-35.12
-35.57
-34.41
-31.46
-26.71
-20.09
-11.42
-0.51
12.74
28.19
45.52
64.23
83.64
102.87
120.82
136.33
148.36
156.17
159.49
158.44
153.43
145.17
134.63
123.13
112.30
103.80
98.93
98.24
101.33
106.95
113.39
118.94
122.21
122.32
118.84
111.77
101.50
88.81
74.82
60.67
47.11
34.07
20.76
6.16
-10.08
-26.92
-41.72
-50.89
-51.05
-40.21
-18.56
11.41
45.40
78.17
104.73
121.45
126.88
122.04
110.11
95.31
81.66
71.91
67.05
66.61
69.32
73.70
78.44
82.30
83.99
82.18
75.73
64.01
47.26
26.50
3.13
-21.52
-46.62
-71.99
-97.71
-123.80
-149.75
-174.46
-196.38
-214.03
-226.32
-232.73
-233.28
-228.15
-217.68
-202.45
-183.54
-162.66
-142.09
-124.08
-110.31
-101.34
-96.65
-94.91
-94.59
-94.41
-93.57
-91.71
-88.69
-84.41
-78.73
-71.59
-63.13
-53.85
-44.53
-36.15
-29.61
-25.44
-23.59
-23.54
-24.50
-25.78
-27.03
-28.32
-29.93
-32.23
-35.46
-39.77
-45.12
-51.20
-57.22
-61.91
-63.58
-60.58
-51.90
-37.59
-18.92
1.93
22.49
40.71
55.35
66.02
72.97
76.68
77.65
76.33
73.21
68.98
64.48
60.57
57.93
56.82
57.06
58.13
59.47
60.63
61.41
61.76
61.64
60.83
58.97
55.64
50.58
43.87
35.94
27.53
19.45
12.34
6.45
1.61
-2.84
-7.77
-13.97
-21.84
-30.96
-40.11
-47.39
-50.75
-48.64
-40.48
-26.90
-9.65
8.94
26.53
41.31
52.27
59.20
62.49
62.76
60.71
56.91
51.87
46.13
40.31
35.08
31.13
28.90
28.49
29.55
31.41
33.30
34.59
34.96
34.44
33.28
31.76
30.06
28.09
25.60
22.28
17.89
12.40
6.07
-0.66
-7.24
-13.24
-18.40
-22.76
-26.57
-30.21
-34.14
-38.70
-44.00
-49.75
-55.05
-58.51
-58.49
-53.63
-43.40
-28.40
-10.37
8.37
25.53
39.51
49.62
56.02
59.29
60.13
59.16
56.87
53.79
50.60
48.02
46.64
46.76
48.26
50.65
53.33
55.76
57.62
58.80
59.26
58.92
57.63
55.28
51.93
47.89
43.69
39.92
37.06
35.25
34.36
33.98
33.71
33.29
32.76
32.45
32.83
34.27
36.78
39.85
42.49
43.63
42.58
39.61
36.16
34.60
37.52
46.78
62.67
83.58
106.45
127.67
144.22
154.57
158.84
158.41
155.09
150.44
145.34
140.07
134.76
129.75
125.80
124.03
125.53
130.94
140.22
152.43
165.72
177.55
185.01
185.39
176.93
159.50
134.96
106.79
79.08
55.08
36.01
20.71
6.26
-10.70
-32.54
-59.94
-91.91
-126.67
-162.48
-198.16
-233.17
-267.20
-299.91
-330.77
-359.21
-384.61
-406.25
-422.90
-432.62
-432.87
-421.09
-395.65
-356.90
-307.46
-252.02
-196.13
-144.97
-102.07
-68.90
-44.95
-28.44
-17.06
-8.57
-1.17
6.45
15.11
25.15
36.43
48.52
60.80
72.62
83.47
93.02
101.18
108.01
113.67
118.30
121.86
124.01
124.10
121.30
114.88
104.56
90.68
74.19
56.35
38.30
20.79
4.02
-12.17
-28.05
-43.73
-59.14
-74.10
-88.34
-101.51
-112.90
-121.27
-124.79
-121.50
-109.92
-89.81
-62.51
-30.81
1.68
31.61
56.71
76.27
90.97
102.30
111.78
120.39
128.38
135.51
141.54
146.68
151.70
157.78
166.18
177.88
193.29
212.15
233.30
254.56
272.85
284.59
286.55
276.83
255.44
224.39
186.96
146.57
105.79
65.73
26.22
-13.36
-53.11
-92.10
-128.28
-159.29
-183.25
-199.43
-208.25
-210.66
-207.51
-199.10
-185.51
-167.23
-145.81
-123.79
-104.11
-89.04
-79.55
-75.25
-75.03
-77.90
-83.38
-91.50
-102.36
-115.56
-130.08
-144.36
-156.94
-166.91
-174.47
-180.85
-187.85
-197.02
-208.71
-221.56
-232.70
-238.77
-237.19
-227.25
-210.37
-189.39
-167.46
-146.93
-128.90
-113.40
-99.97
-88.26
-78.24
-70.13
-64.16
-60.29
-58.19
-57.16
-56.15
-53.84
-48.84
-39.99
-26.74
-9.42
10.67
31.64
51.48
68.50
81.66
90.48
94.95
95.28
91.97
85.81
77.91
69.61
62.18
56.51
52.90
51.13
50.64
50.82
51.27
51.82
52.44
53.09
53.60
53.59
52.57
50.14
46.11
40.66
34.29
27.67
21.36
15.65
10.41
5.13
-0.85
-7.97
-16.15
-24.48
-31.34
-34.82
-33.28
-26.01
-13.51
2.63
20.16
36.81
50.80
61.05
67.23
69.56
68.63
65.25
60.27
54.48
48.53
42.92
38.00
34.05
31.29
29.79
29.50
30.17
31.40
32.73
33.71
33.98
33.21
31.23
28.01
23.76
18.97
14.27
10.24
7.17
4.84
2.57
-0.60
-5.43
-12.01
-19.52
-26.23
-30.00
-28.90
-21.95
-9.43
7.12
25.48
43.42
59.31
72.34
82.47
89.95
95.12
98.14
99.20
98.74
97.62
97.14
98.67
103.29
111.38
122.54
135.78
149.87
163.77
176.94
189.32
201.31
213.52
226.63
241.23
257.52
275.06
292.43
307.17
316.28
317.06
307.98
289.30
262.92
231.65
198.18
164.41
131.19
98.66
66.77
35.57
5.17
-24.56
-54.12
-84.33
-116.02
-149.71
-185.46
-222.95
-261.65
-300.84
-339.64
-377.04
-411.96
-443.42
-470.57
-492.52
-508.10
-515.69
-513.45
-499.86
-474.61
-438.95
-395.63
-348.18
-299.98
-253.55
-210.41
-171.33
-136.74
-106.99
-82.38
-63.02
-48.70
-38.87
-32.62
-28.74
-25.76
-22.00
-15.90
-6.26
7.33
24.30
43.33
62.61
80.32
94.99
105.69
112.00
113.93
111.84
106.36
98.35
88.86
78.99
69.80
62.14
56.54
53.10
51.56
51.40
52.04
52.91
53.55
53.57
52.63
50.50
47.15
42.87
38.21
33.86
30.30
27.54
25.09
22.09
17.67
11.38
3.46
-5.13
-12.81
-17.89
-18.96
-15.39
-7.49
3.56
16.13
28.61
39.79
48.98
55.95
60.65
63.12
63.38
61.47
57.56
52.06
45.85
40.43
37.91
40.70
50.86
69.16
94.47
123.63
152.03
174.74
187.68
188.42
176.53
153.37
121.67
85.04
47.22
11.44
-20.05
-46.16
-66.66
-81.61
-90.79
-93.48
-88.66
-75.48
-53.82
-24.69
9.55
45.14
77.27
100.84
111.91
109.19
95.05
75.18
56.92
46.73
47.82
59.10
75.74
91.14
99.40
97.30
84.96
65.36
42.75
21.06
2.74
-11.61
-22.67
-31.57
-39.09
-45.63
-51.44
-57.20
-63.98
-72.71
-83.29
-94.11
-102.32
-104.89
-99.84
-87.07
-68.28
-46.10
-22.94
-0.18
21.82
43.21
63.98
83.56
100.99
115.43
126.61
134.96
141.32
146.54
151.00
154.63
157.11
158.24
158.19
157.28
155.63
152.57
146.52
135.32
116.91
90.15
55.15
13.16
-34.06
-84.77
-137.34
-189.88
-239.68
-283.23
-317.01
-338.78
-348.82
-350.07
-346.92
-343.10
-339.78
-334.84
-324.07
-303.42
-271.30
-229.58
-183.06
-137.54
-97.91
-66.90
-45.10
-31.64
-25.16
-24.26
-27.46
-33.05
-38.98
-43.30
-44.62
-42.55
-37.79
-31.79
-26.18
-22.23
-20.49
-20.80
-22.55
-25.14
-28.31
-32.24
-37.35
-43.80
-51.03
-57.56
-61.24
-59.94
-52.36
-38.56
-20.09
0.44
20.19
36.85
49.12
56.81
60.48
61.06
59.38
56.08
51.59
46.31
40.78
35.65
31.61
29.13
28.35
28.94
30.26
31.59
32.34
32.26
31.34
29.75
27.67
25.26
22.58
19.68
16.54
13.01
8.85
3.79
-2.23
-8.81
-15.03
-19.47
-20.64
-17.41
-9.49
2.53
17.15
32.47
46.54
57.79
65.23
68.58
68.19
64.91
59.85
54.18
48.88
44.56
41.41
39.31
37.96
37.12
36.56
36.20
35.94
35.62
35.04
33.96
32.14
29.39
25.57
20.61
14.59
7.78
0.68
-6.05
-11.90
-16.64
-20.61
-24.48
-28.91
-34.15
-39.62
-44.00
-45.49
-42.49
-34.15
-20.69
-3.43
15.66
34.50
51.35
65.09
75.25
81.79
84.96
85.13
82.73
78.31
72.55
66.25
60.15
54.84
50.61
47.47
45.22
43.53
42.08
40.62
38.90
36.73
33.89
30.14
25.33
19.47
12.79
5.77
-0.97
-6.89
-11.71
-15.57
-18.97
-22.66
-27.34
-33.53
-41.31
-50.32
-59.70
-68.17
-74.18
-76.16
-73.01
-64.47
-51.30
-35.21
-18.35
-2.72
10.29
20.06
26.59
30.25
31.43
30.56
28.15
24.91
21.77
19.80
19.98
23.10
29.71
40.09
54.29
72.00
92.48
114.52
136.48
156.46
172.55
183.12
187.11
184.32
175.49
162.29
146.91
131.51
117.55
105.37
94.22
82.75
69.81
55.12
39.47
24.31
11.00
0.17
-8.58
-16.39
-24.51
-33.62
-43.58
-53.60
-62.64
-69.94
-75.12
-78.10
-78.76
-76.80
-71.85
-63.76
-52.97
-40.70
-28.77
-19.09
-13.17
-11.71
-14.48
-20.66
-29.12
-38.88
-49.19
-59.54
-69.53
-78.83
-87.14
-94.32
-100.37
-105.41
-109.60
-113.00
-115.59
-117.22
-117.49
-115.74
-110.95
-102.04
-88.15
-69.20
-46.10
-20.64
4.91
28.46
48.58
64.66
76.76
85.26
90.57
93.09
93.22
91.54
88.82
85.94
83.67
82.44
82.31
82.93
83.78
84.37
84.38
83.71
82.35
80.26
77.30
73.24
67.89
61.25
53.55
45.19
36.65
28.34
20.58
13.55
7.29
1.64
-3.79
-9.55
-16.12
-23.46
-30.77
-36.40
-38.28
-34.64
-24.76
-9.33
9.70
29.69
48.14
63.28
74.37
81.65
85.97
88.45
90.19
92.00
94.31
97.26
100.77
104.83
109.62
115.51
123.13
133.17
146.20
162.27
180.47
198.65
213.63
222.01
221.39
211.27
193.39
170.90
147.04
123.73
101.14
78.16
53.56
26.95
-1.04
-29.19
-56.67
-83.61
-111.08
-140.63
-173.78
-211.82
-255.42
-304.15
-355.57
-404.84
-445.22
-469.83
-474.14
-457.86
-425.23
-383.40
-339.73
-299.37
-264.41
-234.52
-208.56
-185.80
-166.22
-149.90
-136.18
-123.60
-110.39
-95.45
-78.92
-62.19
-47.27
-35.93
-28.89
-25.64
-24.79
-24.71
-24.13
-22.56
-20.22
-17.83
-16.17
-15.76
-16.79
-19.20
-22.76
-27.15
-31.95
-36.46
-39.67
-40.38
-37.46
-30.25
-18.92
-4.45
11.57
27.31
41.14
51.94
59.12
62.67
62.99
60.77
56.93
52.39
48.02
44.46
42.11
41.12
41.41
42.72
44.73
47.06
49.44
51.66
53.59
55.09
55.90
55.65
53.98
50.72
46.00
40.35
34.42
28.87
23.98
19.63
15.28
10.21
3.79
-4.28
-13.70
-23.51
-32.21
-38.00
-39.32
-35.25
-25.92
-12.48
3.12
18.74
32.50
43.18
50.34
54.07
54.79
53.02
49.30
44.17
38.28
32.32
26.94
22.63
19.62
17.84
17.05
16.88
16.99
17.10
17.03
16.57
15.51
13.57
10.52
6.29
1.09
-4.53
-9.94
-14.62
-18.47
-21.87
-25.62
-30.52
-37.00
-44.81
-52.91
-59.64
-63.18
-62.06
-55.62
-44.18
-29.05
-12.15
4.49
19.11
30.59
38.40
42.56
43.40
41.51
37.61
32.52
27.10
22.09
18.03
15.25
13.79
13.55
14.32
15.84
17.79
19.80
21.42
22.21
21.82
20.02
16.80
12.34
7.03
1.39
-4.06
-8.89
-12.99
-16.57
-20.18
-24.48
-29.94
-36.51
-43.42
-49.29
-52.45
-51.50
-45.75
-35.49
-21.89
-6.69
8.27
21.46
31.88
39.06
42.94
43.74
41.81
37.70
32.05
25.70
19.48
14.19
10.40
8.34
7.91
8.76
10.45
12.56
14.79
16.92
18.67
19.71
19.67
18.29
15.54
11.78
7.55
3.47
-0.11
-3.20
-6.22
-9.80
-14.50
-20.51
-27.44
-34.22
-39.36
-41.27
-38.74
-31.40
-19.89
-5.71
9.15
22.79
33.78
41.39
45.45
46.21
44.12
39.74
33.72
26.86
19.91
13.56
8.23
4.03
0.76
-1.84
-3.99
-5.69
-6.77
-7.02
-6.43
-5.27
-4.13
-3.71
-4.66
-7.34
-11.71
-17.32
-23.34
-28.80
-32.80
-34.81
-34.88
-33.59
-31.87
-30.47
-29.61
-28.71
-26.62
-21.98
-13.84
-2.02
12.75
29.16
45.63
60.78
73.61
83.50
90.12
93.36
93.37
90.59
85.79
79.96
74.13
69.07
65.14
62.30
60.26
58.72
57.59
57.01
57.26
58.50
60.65
63.29
65.85
67.73
68.60
68.49
67.85
67.36
67.73
69.40
72.36
76.19
80.16
83.56
86.00
87.57
88.96
91.32
96.22
105.34
120.03
140.59
165.65
191.84
214.23
227.66
228.33
215.11
189.85
156.59
120.05
84.05
50.68
20.29
-7.92
-35.22
-63.06
-93.11
-127.32
-167.38
-213.56
-263.55
-312.12
-352.26
-377.45
-384.17
-373.42
-350.22
-321.46
-293.21
-268.84
-248.81
-231.78
-216.22
-201.52
-188.04
-176.36
-166.55
-157.84
-148.79
-137.88
-123.96
-106.53
-85.88
-62.84
-38.65
-14.66
7.91
28.01
44.87
57.86
66.53
70.63
70.32
66.22
59.47
51.49
43.67
37.01
31.97
28.42
25.97
24.14
22.65
21.40
20.40
19.57
18.64
17.15
14.61
10.66
5.22
-1.46
-8.95
-16.71
-24.26
-31.33
-37.82
-43.87
-49.69
-55.38
-60.69
-64.80
-66.41
-64.08
-56.77
-44.37
-27.83
-9.01
9.92
26.98
40.84
50.83
56.86
59.18
58.27
54.76
49.46
43.25
37.04
31.62
27.54
25.07
24.24
24.80
26.33
28.25
29.98
30.99
30.95
29.74
27.48
24.40
20.77
16.80
12.58
8.13
3.33
-1.94
-7.85
-14.46
-21.68
-29.08
-35.75
-40.39
-41.58
-38.15
-29.75
-16.97
-1.39
14.88
29.79
41.81
50.14
54.71
55.87
54.17
50.17
44.48
37.83
31.01
24.92
20.33
17.73
17.19
18.30
20.32
22.38
23.71
23.80
22.46
19.77
16.00
11.48
6.53
1.36
-3.98
-9.58
-15.66
-22.52
-30.32
-38.97
-47.94
-56.24
-62.52
-65.30
-63.37
-56.26
-44.37
-29.09
-12.41
3.59
17.23
27.47
33.96
36.73
36.03
32.27
26.03
18.19
9.92
2.42
-3.28
-6.70
-7.99
-7.91
-7.62
-8.34
-10.91
-15.50
-21.39
-27.11
-30.81
-30.96
-26.83
-18.75
-8.05
3.44
13.86
21.63
25.56
24.92
19.52
9.87
-2.62
-15.71
-26.75
-33.29
-33.85
-28.28
-17.69
-4.02
10.65
24.62
36.84
46.78
54.17
58.77
60.35
58.88
54.76
49.05
43.37
39.65
39.60
44.27
53.74
67.08
82.53
97.81
110.66
119.34
123.15
122.60
119.16
114.67
110.60
107.42
104.46
100.36
93.61
83.18
68.69
50.38
28.88
5.12
-19.54
-43.34
-64.22
-80.31
-90.49
-94.80
-94.39
-91.14
-86.93
-83.18
-80.53
-78.91
-77.91
-77.01
-75.83
-74.21
-72.14
-69.63
-66.63
-62.99
-58.54
-53.18
-46.97
-40.16
-33.07
-26.01
-19.30
-13.26
-8.25
-4.59
-2.47
-1.83
-2.33
-3.48
-4.95
-6.66
-8.84
-11.78
-15.71
-20.50
-25.64
-30.26
-33.29
-33.66
-30.50
-23.41
-12.59
1.11
16.32
31.41
44.84
55.38
62.27
65.25
64.54
60.67
54.43
46.75
38.57
30.81
24.28
19.59
17.09
16.76
18.26
21.08
24.71
28.79
33.14
37.67
42.17
46.33
49.84
52.63
55.00
57.61
61.19
66.22
72.80
80.69
89.64
99.58
110.74
123.41
137.70
153.37
170.05
187.52
205.78
224.70
243.38
259.71
270.55
272.66
263.93
244.32
216.04
182.68
147.97
114.67
84.07
56.15
30.18
5.17
-20.11
-47.20
-78.04
-114.37
-156.64
-202.81
-248.00
-285.40
-308.41
-313.17
-300.11
-273.70
-240.63
-206.99
-176.34
-149.15
-123.87
-98.58
-72.28
-45.18
-18.01
8.80
35.47
62.71
91.16
121.02
151.91
183.03
213.33
241.41
265.40
282.96
291.68
289.74
276.63
253.43
222.49
186.81
149.15
111.47
74.91
39.91
6.46
-25.70
-57.22
-89.20
-123.21
-160.75
-202.57
-247.81
-293.71
-336.05
-370.16
-392.48
-401.56
-398.23
-384.96
-364.62
-339.65
-311.68
-281.94
-251.78
-222.95
-197.29
-176.16
-159.86
-147.49
-137.41
-127.89
-117.85
-107.09
-96.22
-86.06
-77.16
-69.40
-62.17
-54.77
-46.91
-38.93
-31.68
-26.00
-22.40
-20.77
-20.62
-21.44
-22.99
-25.34
-28.79
-33.61
-39.93
-47.63
-56.30
-65.20
-73.20
-78.87
-80.84
-78.29
-71.30
-60.98
-49.01
-37.06
-26.16
-16.45
-7.46
1.41
10.33
18.90
26.30
31.81
35.13
36.61
37.00
37.13
37.58
38.50
39.74
41.01
42.07
42.82
43.22
43.21
42.64
41.28
38.93
35.52
31.19
26.16
20.69
14.82
8.40
1.16
-7.03
-15.76
-23.89
-29.66
-31.16
-27.01
-16.95
-2.13
15.26
32.63
47.75
59.26
66.76
70.54
71.20
69.43
65.86
61.11
55.82
50.65
46.27
43.21
41.87
42.41
44.66
48.12
51.98
55.31
57.34
57.72
56.60
54.51
52.12
49.93
48.15
46.60
44.84
42.41
39.09
35.22
31.94
31.12
34.93
45.23
62.91
87.49
117.20
149.45
181.62
211.76
239.00
263.72
287.28
311.30
336.71
362.80
386.77
404.37
411.32
405.07
385.98
357.21
323.42
288.90
256.00
224.86
194.19
162.51
129.24
94.88
60.42
26.67
-6.30
-39.07
-72.45
-107.05
-143.19
-181.11
-221.11
-263.26
-306.67
-348.68
-384.82
-409.65
-418.58
-409.69
-384.65
-348.31
-306.94
-266.33
-230.36
-200.73
-177.55
-160.20
-147.95
-140.06
-135.58
-133.27
-131.66
-129.40
-125.57
-119.75
-112.19
-103.41
-94.14
-84.99
-76.36
-68.44
-61.28
-54.97
-49.67
-45.59
-42.84
-41.28
-40.49
-39.87
-38.95
-37.65
-36.28
-35.35
-35.10
-35.01
-33.75
-29.44
-20.36
-5.66
14.19
37.56
62.15
85.75
106.74
124.17
137.63
146.87
151.76
152.26
148.68
141.88
133.31
125.05
119.58
119.47
126.56
141.08
160.74
180.68
194.46
195.92
181.18
149.75
104.51
50.52
-6.55
-61.62
-110.78
-151.30
-181.64
-201.51
-212.01
-215.46
-214.70
-212.03
-208.38
-203.04
-194.22
-180.12
-159.81
-133.86
-104.18
-73.53
-44.86
-20.65
-2.53
8.90
14.00
14.17
11.56
8.61
7.37
8.49
10.67
10.70
4.34
-12.35
-41.55
-82.82
-132.77
-185.43
-233.15
-268.15
-284.03
-277.46
-249.01
-202.85
-145.11
-81.92
-17.78
44.48
102.97
155.75
200.86
237.24
265.54
287.69
305.34
318.02
322.57
314.93
293.18
259.96
222.61
190.39
170.40
164.41
168.40
175.06
177.56
172.56
161.06
146.93
134.46
125.93
120.85
116.57
109.90
98.59
81.96
60.52
35.08
6.08
-26.45
-62.19
-99.89
-137.28
-171.73
-201.19
-224.85
-243.16
-257.17
-267.79
-275.27
-279.29
-279.26
-274.85
-266.10
-253.50
-237.86
-220.36
-202.47
-185.86
-172.05
-162.05
-156.07
-153.45
-152.95
-153.03
-152.16
-148.88
-142.02
-130.84
-115.36
-96.51
-76.09
-56.21
-38.79
-24.96
-14.96
-8.41
-4.71
-3.49
-4.61
-8.08
-13.70
-20.87
-28.45
-34.87
-38.40
-37.47
-31.05
-18.98
-1.96
18.59
40.88
63.18
84.03
102.34
117.37
128.62
135.94
139.51
139.88
137.95
134.76
131.36
128.63
127.19
127.34
128.95
131.61
134.66
137.39
139.25
139.84
138.92
136.27
131.66
124.94
116.13
105.48
93.36
79.93
65.02
48.05
28.41
6.03
-18.30
-42.85
-65.46
-84.25
-98.25
-107.58
-113.07
-115.72
-116.17
-114.46
-110.34
-103.68
-94.76
-84.32
-73.28
-62.24
-51.26
-39.87
-27.38
-13.38
1.90
17.64
32.64
45.89
56.96
66.03
73.78
80.90
87.74
94.23
100.05
104.85
108.46
110.96
112.51
113.35
113.85
114.70
117.08
122.48
132.25
146.99
166.08
187.53
208.39
225.28
235.10
235.42
224.76
202.60
169.38
126.39
75.76
20.27
-36.87
-92.43
-143.52
-188.06
-224.99
-254.21
-276.39
-292.33
-302.58
-307.06
-305.17
-296.21
-279.92
-256.90
-228.57
-196.88
-163.87
-131.21
-100.10
-71.28
-45.30
-22.53
-3.17
13.07
27.17
40.72
55.70
73.75
95.66
120.97
148.13
175.09
200.10
222.08
240.56
254.96
263.93
265.17
255.92
234.13
199.43
153.47
99.37
40.61
-19.85
-79.93
-137.96
-192.02
-239.63
-277.91
-304.40
-317.77
-318.23
-307.28
-287.24
-260.58
-229.67
-196.60
-163.27
-131.43
-102.61
-78.07
-58.61
-44.55
-35.57
-30.73
-28.49
-26.85
-23.71
-17.30
-6.62
8.31
26.34
45.60
64.02
79.85
92.03
100.21
104.58
105.59
103.75
99.61
93.86
87.36
81.04
75.70
71.75
69.10
67.28
65.67
63.82
61.53
58.89
55.98
52.75
48.98
44.42
38.94
32.73
26.14
19.57
13.30
7.35
1.49
-4.56
-11.09
-18.32
-26.13
-34.02
-40.96
-45.50
-46.15
-41.82
-32.41
-18.87
-3.10
12.74
26.79
37.92
45.72
50.33
52.08
51.40
48.76
44.78
40.23
35.90
32.50
30.43
29.79
30.38
31.82
33.64
35.40
36.65
36.98
36.07
33.72
29.86
24.65
18.39
11.58
4.75
-1.57
-7.01
-11.42
-14.93
-17.90
-20.80
-24.01
-27.62
-31.27
-34.14
-35.12
-33.12
-27.57
-18.57
-7.05
5.56
17.76
28.36
36.72
42.67
46.40
48.17
48.27
47.07
44.96
42.47
40.18
38.57
37.94
38.27
39.34
40.81
42.31
43.57
44.39
44.63
44.09
42.58
40.00
36.37
31.92
27.06
22.26
17.88
14.06
10.70
7.51
4.11
0.29
-3.78
-7.40
-9.38
-8.23
-2.62
8.08
23.52
42.29
62.24
80.94
96.23
106.66
111.72
111.89
108.50
103.36
98.41
95.21
94.71
97.04
101.74
108.05
115.15
122.46
129.64
136.56
143.14
149.29
154.86
159.64
163.33
165.33
164.65
159.96
149.73
132.78
108.60
77.63
40.97
-0.05
-44.31
-90.82
-138.34
-184.76
-226.91
-261.10
-284.04
-293.89
-290.74
-276.28
-253.03
-223.46
-189.63
-153.28
-116.21
-80.41
-47.79
-19.73
3.51
22.81
39.99
57.14
76.05
97.51
120.85
143.76
162.53
172.99
171.64
156.88
129.53
92.44
49.17
2.56
-46.11
-96.84
-149.64
-203.23
-254.36
-298.29
-330.12
-346.31
-345.60
-328.99
-299.07
-259.26
-213.23
-164.74
-117.49
-74.88
-39.57
-12.98
5.00
15.77
21.53
24.53
26.63
29.04
32.22
36.08
40.18
43.92
46.71
48.21
48.43
47.69
46.49
45.16
43.82
42.21
39.95
36.66
32.19
26.62
20.12
12.81
4.71
-4.13
-13.47
-22.62
-30.52
-35.87
-37.52
-34.85
-28.04
-18.05
-6.43
5.08
14.97
22.25
26.56
28.01
27.05
24.14
19.76
14.41
8.65
3.15
-1.40
-4.40
-5.65
-5.30
-3.89
-2.10
-0.56
0.34
0.49
-0.02
-1.03
-2.41
-4.12
-6.24
-8.87
-12.13
-16.15
-21.00
-26.57
-32.46
-37.91
-41.81
-42.94
-40.29
-33.42
-22.67
-9.04
5.90
20.54
33.41
43.47
50.17
53.43
53.58
51.27
47.36
42.78
38.37
34.75
32.18
30.67
30.06
30.22
31.13
32.97
35.94
40.03
44.91
49.86
54.02
56.67
57.62
57.29
56.64
56.80
58.55
62.03
66.62
71.31
75.19
78.07
80.76
85.10
93.43
107.86
129.34
156.93
187.35
215.45
235.34
242.04
233.16
209.58
175.08
134.90
93.83
54.81
18.47
-16.40
-51.97
-90.40
-133.11
-180.03
-229.11
-276.20
-315.77
-342.36
-352.53
-346.14
-326.50
-299.05
-269.41
-241.67
-217.76
-197.91
-181.67
-168.70
-158.88
-151.89
-146.77
-141.83
-135.04
-124.70
-109.99
-91.19
-69.49
-46.46
-23.58
-1.87
18.13
36.12
51.78
64.54
73.78
79.07
80.59
79.22
76.39
73.65
72.16
72.34
73.91
76.12
78.16
79.47
79.84
79.42
78.54
77.52
76.57
75.74
74.91
73.86
72.42
70.40
67.71
64.31
60.17
55.50
50.83
47.19
46.06
49.05
57.36
71.30
89.96
111.46
133.54
154.19
172.19
187.22
199.55
209.83
218.93
228.07
238.80
252.52
269.65
288.76
306.35
317.69
318.49
306.53
282.61
250.14
213.81
177.92
145.14
116.22
90.34
65.84
40.87
13.97
-15.66
-47.86
-81.68
-115.50
-147.79
-177.73
-205.52
-232.50
-261.01
-294.00
-334.03
-381.90
-435.19
-487.58
-529.75
-552.13
-548.41
-518.18
-467.25
-405.37
-342.39
-284.87
-234.86
-191.01
-151.03
-113.85
-80.12
-51.21
-27.60
-7.94
10.67
31.33
56.05
84.88
115.53
144.07
165.66
175.71
171.07
151.04
117.73
75.61
30.14
-13.90
-53.56
-87.95
-117.47
-142.81
-164.30
-181.92
-195.74
-206.26
-214.22
-219.85
-222.31
-219.70
-209.87
-191.59
-165.56
-134.65
-103.18
-75.85
-56.54
-47.43
-48.41
-56.90
-67.92
-74.80
-70.70
-50.86
-14.84
32.41
81.58
122.23
146.97
154.56
150.33
143.83
144.60
158.38
185.17
219.77
254.38
281.58
296.64
298.45
288.78
270.84
247.61
220.83
191.07
158.46
123.74
88.78
56.14
27.91
4.71
-14.55
-31.81
-48.37
-63.84
-76.16
-82.69
-81.73
-73.73
-61.21
-47.87
-36.99
-30.24
-27.24
-26.02
-24.19
-19.96
-12.97
-4.23
4.62
12.16
18.10
23.50
30.53
41.63
58.63
82.08
111.07
143.54
176.97
208.99
237.82
262.57
283.06
299.71
313.18
324.03
332.40
337.79
339.02
334.51
322.78
302.97
275.23
240.77
201.61
160.01
117.97
76.93
37.60
0.08
-35.96
-71.24
-106.79
-143.91
-183.68
-226.29
-270.40
-312.90
-349.44
-375.70
-388.70
-387.76
-374.50
-352.05
-323.85
-292.77
-260.89
-229.81
-201.03
-176.16
-156.57
-142.92
-134.81
-130.87
-129.26
-128.24
-126.65
-124.00
-120.31
-115.74
-110.32
-103.94
-96.43
-87.74
-78.19
-68.42
-59.32
-51.66
-45.89
-41.94
-39.32
-37.36
-35.57
-33.87
-32.58
-32.30
-33.53
-36.34
-40.19
-43.87
-45.78
-44.23
-37.93
-26.42
-10.25
9.03
29.27
48.27
64.32
76.55
84.78
89.31
90.51
88.69
84.12
77.26
68.95
60.38
52.86
47.54
45.06
45.43
48.10
52.13
56.44
60.09
62.40
63.10
62.30
60.39
57.84
54.96
51.83
48.32
44.21
39.39
33.92
28.02
22.07
16.52
11.92
8.82
7.74
9.03
12.64
18.01
23.87
28.53
30.13
27.09
18.47
4.23
-14.69
-36.37
-58.16
-77.08
-90.33
-95.85
-92.91
-82.46
-67.04
-50.34
-36.14
-27.33
-25.00
-28.34
-35.18
-42.99
-50.01
-55.73
-60.88
-66.72
-74.21
-83.47
-93.62
-103.10
-110.07
-112.75
-109.69
-99.92
-83.19
-60.15
-32.47
-2.74
26.00
50.89
69.83
81.85
87.19
86.89
82.38
75.11
66.33
57.12
48.46
41.25
36.12
33.31
32.53
33.14
34.29
35.23
35.45
34.68
32.85
29.91
25.88
20.88
15.20
9.19
3.20
-2.66
-8.57
-14.87
-21.84
-29.25
-36.22
-41.18
-42.37
-38.41
-28.84
-14.43
3.06
21.30
38.05
51.67
61.24
66.64
68.25
66.79
63.10
57.98
52.20
46.45
41.32
37.26
34.55
33.22
33.02
33.50
34.11
34.30
33.68
32.01
29.22
25.42
20.79
15.56
9.96
4.13
-1.78
-7.71
-13.68
-19.80
-26.27
-33.27
-40.68
-47.90
-53.75
-56.69
-55.27
-48.78
-37.58
-23.13
-7.63
6.64
17.89
25.18
28.37
27.97
24.79
19.82
14.03
8.38
3.74
0.72
-0.63
-0.88
-1.24
-3.13
-7.56
-14.58
-23.05
-31.08
-36.73
-38.89
-37.64
-34.12
-29.89
-26.17
-23.52
-21.92
-21.14
-21.19
-22.36
-25.00
-28.99
-33.50
-37.06
-37.90
-34.59
-26.61
-14.55
0.03
15.12
28.84
39.93
47.93
52.96
55.41
55.63
53.79
50.02
44.60
38.18
31.60
25.85
21.64
19.29
18.67
19.31
20.62
22.02
23.08
23.53
23.27
22.35
20.95
19.32
17.70
16.21
14.86
13.50
11.83
9.49
6.21
2.02
-2.59
-6.64
-8.89
-8.12
-3.65
4.41
15.10
26.86
37.95
46.86
52.66
54.98
54.00
50.23
44.36
37.20
29.53
22.10
15.53
10.26
6.40
3.86
2.33
1.48
1.01
0.70
0.40
-0.07
-0.92
-2.37
-4.55
-7.46
-10.95
-14.75
-18.64
-22.51
-26.46
-30.76
-35.77
-41.74
-48.65
-55.99
-62.72
-67.40
-68.55
-65.07
-56.67
-43.95
-28.35
-11.70
4.18
17.93
28.70
36.22
40.56
42.08
41.23
38.63
34.98
31.05
27.57
25.08
23.76
23.44
23.63
23.81
23.62
22.98
22.04
20.99
19.86
18.44
16.41
13.50
9.68
5.18
0.39
-4.31
-8.67
-12.53
-15.78
-18.32
-20.14
-21.24
-21.69
-21.37
-19.87
-16.40
-10.14
-0.70
11.34
24.29
35.83
43.81
47.14
46.20
42.54
38.02
33.84
29.96
25.26
18.33
8.49
-3.42
-14.91
-22.35
-22.06
-11.53
9.67
39.56
73.97
107.44
134.33
150.27
153.33
144.66
128.32
110.30
96.65
91.58
96.01
107.27
120.12
128.79
129.07
119.67
102.17
79.88
56.23
33.56
12.86
-5.66
-21.68
-34.28
-42.12
-44.30
-41.27
-35.10
-28.87
-25.52
-26.66
-31.96
-39.49
-46.66
-51.24
-52.20
-49.69
-44.64
-38.09
-30.65
-22.35
-12.83
-1.71
11.01
24.76
38.45
50.83
60.90
68.33
73.59
77.60
81.34
85.37
89.68
93.91
97.61
100.32
101.30
99.21
92.00
77.44
54.13
22.53
-14.70
-53.32
-88.85
-117.99
-139.43
-153.60
-161.74
-164.92
-163.59
-157.78
-147.75
-134.52
-119.81
-105.49
-92.89
-82.45
-73.82
-66.45
-60.10
-55.03
-51.73
-50.45
-50.79
-51.78
-52.19
-51.12
-48.34
-44.41
-40.32
-37.13
-35.61
-35.99
-38.06
-41.32
-45.20
-49.18
-52.93
-56.37
-59.60
-62.83
-66.24
-69.74
-72.92
-75.06
-75.27
-72.85
-67.43
-59.17
-48.73
-37.00
-25.06
-13.85
-4.14
3.51
8.80
11.71
12.44
11.53
9.64
7.46
5.56
4.26
3.65
3.63
4.08
4.93
6.12
7.62
9.31
10.94
12.19
12.78
12.54
11.54
9.98
8.13
6.24
4.43
2.71
0.96
-1.05
-3.63
-6.98
-11.14
-15.81
-20.37
-23.95
-25.67
-24.87
-21.27
-15.09
-6.91
2.42
11.91
20.60
27.65
32.54
35.06
35.39
33.98
31.40
28.21
24.85
21.64
18.81
16.52
14.91
14.07
14.00
14.58
15.59
16.72
17.60
17.87
17.30
15.79
13.38
10.22
6.54
2.60
-1.31
-4.99
-8.35
-11.49
-14.65
-18.16
-22.18
-26.58
-30.80
-33.99
-35.19
-33.65
-29.07
-21.72
-12.41
-2.22
7.66
16.26
22.92
27.41
29.76
30.19
28.96
26.34
22.63
18.25
13.72
9.60
6.35
4.25
3.27
3.14
3.47
3.82
3.83
3.30
2.19
0.58
-1.32
-3.32
-5.31
-7.26
-9.31
-11.69
-14.64
-18.34
-22.81
-27.80
-32.78
-36.92
-39.29
-39.05
-35.77
-29.57
-21.20
-11.75
-2.41
5.92
12.78
18.04
21.80
24.08
24.76
23.70
20.88
16.62
11.59
6.60
2.44
-0.38
-1.71
-1.71
-0.76
0.69
2.14
3.18
3.45
2.76
1.10
-1.36
-4.35
-7.68
-11.26
-15.19
-19.64
-24.71
-30.27
-35.78
-40.32
-42.72
-41.80
-36.82
-27.70
-15.16
-0.61
14.18
27.52
38.10
45.24
48.86
49.38
47.50
44.00
39.60
34.86
30.20
25.87
22.00
18.69
16.00
13.97
12.61
11.86
11.55
11.37
10.94
9.94
8.17
5.63
2.43
-1.21
-5.08
-9.04
-12.96
-16.81
-20.65
-24.64
-29.00
-33.78
-38.63
-42.60
-44.24
-42.03
-34.95
-22.97
-7.18
10.48
27.81
42.95
54.72
62.75
67.26
68.85
68.25
66.19
63.40
60.46
57.76
55.45
53.41
51.41
49.27
46.95
44.56
42.21
39.89
37.31
33.94
29.24
22.89
15.04
6.38
-2.06
-9.33
-14.88
-18.84
-21.94
-25.19
-29.50
-35.21
-41.88
-48.25
-52.49
-52.60
-47.05
-35.42
-18.88
-0.12
17.22
29.67
35.06
33.33
26.39
17.38
9.36
4.30
2.56
3.12
4.40
4.97
4.19
2.22
-0.22
-2.36
-3.72
-4.25
-4.29
-4.25
-4.49
-5.06
-5.91
-6.93
-8.16
-9.76
-11.88
-14.52
-17.37
-19.97
-21.87
-22.95
-23.51
-24.16
-25.46
-27.45
-29.38
-29.74
-26.78
-19.26
-7.09
8.48
25.13
40.31
52.03
59.45
62.92
63.46
62.19
59.86
56.73
52.86
48.38
43.78
39.72
36.86
35.53
35.66
36.90
38.79
40.86
42.58
43.40
42.65
39.75
34.43
26.87
17.70
7.73
-2.38
-12.37
-22.50
-33.33
-45.47
-59.18
-74.15
-89.44
-103.54
-114.65
-121.00
-121.26
-114.84
-102.06
-84.18
-63.21
-41.55
-21.59
-5.35
5.92
11.82
12.81
9.93
4.54
-2.01
-8.57
-14.25
-18.51
-21.06
-21.89
-21.22
-19.38
-16.72
-13.54
-10.00
-6.23
-2.36
1.36
4.65
7.23
8.93
9.76
9.86
9.53
9.10
8.81
8.70
8.48
7.62
5.55
1.99
-2.74
-7.60
-11.10
-11.81
-8.88
-2.31
7.01
17.70
28.30
37.65
44.99
49.94
52.41
52.53
50.56
46.95
42.33
37.38
32.82
29.29
27.35
27.35
29.38
33.16
37.91
42.43
45.33
45.42
42.17
35.95
27.94
19.81
13.13
8.91
7.41
8.24
10.66
13.98
17.83
22.29
27.85
35.30
45.45
58.93
75.95
96.27
119.29
144.16
170.06
196.15
221.67
245.83
267.83
286.75
301.52
310.95
313.80
309.14
296.65
276.90
251.30
221.81
190.27
158.05
125.86
93.86
62.06
30.56
-0.49
-31.06
-61.43
-92.44
-125.32
-161.38
-201.44
-245.11
-290.31
-333.33
-369.61
-395.10
-407.58
-407.39
-397.16
-380.71
-361.64
-342.50
-324.47
-307.87
-292.59
-278.27
-263.98
-248.03
-228.10
-201.89
-168.24
-127.73
-82.76
-36.72
7.13
46.66
81.26
111.47
138.40
163.16
186.72
210.03
234.19
260.00
287.15
313.45
334.70
345.69
341.92
321.52
286.10
240.13
189.34
138.60
90.64
45.83
2.97
-39.74
-84.03
-131.32
-182.36
-236.71
-292.05
-343.96
-386.67
-414.70
-424.71
-416.51
-392.84
-358.14
-317.00
-273.08
-228.87
-186.00
-145.64
-108.60
-75.26
-45.65
-19.78
1.98
18.66
29.08
32.56
29.40
21.01
9.36
-3.66
-16.74
-29.14
-40.22
-49.20
-55.18
-57.56
-56.54
-53.25
-49.27
-45.79
-42.89
-39.43
-33.58
-23.75
-9.39
8.74
28.89
48.98
67.17
82.25
93.59
100.98
104.53
104.58
101.82
97.25
91.97
86.94
82.71
79.32
76.50
73.99
71.79
70.19
69.57
70.01
71.08
71.99
71.88
70.29
67.22
63.05
58.26
53.18
48.19
43.85
41.03
40.55
42.59
46.43
50.71
54.21
56.73
59.35
64.02
72.44
84.94
99.96
114.21
123.68
124.85
115.82
96.92
70.60
40.95
12.61
-10.07
-23.89
-27.01
-19.01
-0.73
25.65
56.48
86.82
111.09
124.45
124.06
109.94
84.78
53.00
19.42
-11.88
-38.03
-57.37
-69.14
-73.15
-69.63
-59.15
-42.54
-20.78
5.05
33.75
64.06
94.68
124.43
152.28
177.31
198.35
213.69
221.02
217.96
202.87
175.86
139.07
96.38
52.34
10.99
-25.18
-55.37
-80.26
-101.23
-119.83
-137.25
-154.19
-170.76
-186.63
-201.14
-213.56
-223.28
-230.05
-233.98
-235.57
-235.53
-234.56
-233.08
-231.10
-228.08
-223.05
-214.86
-202.57
-185.75
-164.74
-140.69
-115.33
-90.68
-68.59
-50.41
-36.83
-27.78
-22.66
-20.49
-20.23
-20.91
-21.72
-22.08
-21.63
-20.20
-17.81
-14.60
-10.74
-6.47
-2.07
2.09
5.55
7.82
8.57
7.68
5.32
1.95
-1.89
-5.76
-9.44
-13.05
-17.04
-22.07
-28.69
-37.03
-46.41
-55.31
-61.46
-62.54
-56.83
-43.93
-24.94
-2.26
21.12
42.40
59.53
71.44
78.01
79.74
77.57
72.59
66.02
59.00
52.49
47.13
43.19
40.66
39.42
39.32
40.22
41.86
43.83
45.52
46.24
45.41
42.78
38.46
32.87
26.59
20.16
13.95
8.12
2.65
-2.71
-8.36
-14.72
-22.02
-29.95
-37.48
-43.01
-44.86
-41.96
-34.38
-23.41
-11.09
0.63
10.59
18.63
25.36
31.54
37.57
43.31
48.20
51.59
52.90
51.81
48.17
42.10
34.06
24.93
15.93
8.36
3.25
1.01
1.33
3.30
5.67
7.18
6.83
4.09
-1.06
-8.20
-16.62
-25.47
-34.03
-41.78
-48.55
-54.46
-59.72
-64.47
-68.60
-71.59
-72.63
-70.80
-65.35
-55.99
-43.10
-27.74
-11.47
3.90
16.72
25.80
30.58
31.15
28.09
22.24
14.58
6.10
-2.18
-9.28
-14.34
-16.82
-16.64
-14.23
-10.39
-6.07
-2.11
0.91
2.68
3.12
2.29
0.36
-2.42
-5.79
-9.62
-14.00
-19.23
-25.71
-33.54
-42.27
-50.70
-57.07
-59.61
-57.09
-49.38
-37.50
-23.42
-9.42
2.56
11.31
16.47
18.37
17.65
15.00
11.03
6.24
0.98
-4.59
-10.64
-17.61
-25.86
-35.20
-44.58
-52.13
-55.82
-54.33
-47.78
-37.74
-26.63
-16.68
-9.20
-4.27
-1.27
0.48
1.21
0.67
-1.51
-5.41
-10.46
-15.61
-19.49
-20.77
-18.57
-12.59
-3.25
8.49
21.28
33.73
44.69
53.37
59.34
62.42
62.61
60.03
54.98
48.04
40.00
31.76
24.18
17.86
13.12
10.01
8.40
8.01
8.57
9.73
11.11
12.33
13.08
13.07
12.22
10.55
8.12
5.08
1.42
-2.93
-8.16
-14.44
-21.78
-29.81
-37.69
-44.07
-47.33
-46.03
-39.39
-27.62
-12.07
5.23
22.03
36.52
47.68
55.26
59.58
61.12
60.38
57.75
53.61
48.46
42.98
37.87
33.81
31.26
30.37
31.02
32.80
35.17
37.51
39.20
39.69
38.64
35.96
31.84
26.72
21.18
15.69
10.45
5.27
-0.33
-6.91
-14.73
-23.44
-31.99
-38.78
-42.04
-40.40
-33.36
-21.47
-6.27
10.21
25.90
39.20
49.15
55.48
58.28
57.95
55.02
50.10
43.89
37.12
30.46
24.49
19.64
16.21
14.41
14.29
15.71
18.22
21.09
23.51
24.79
24.48
22.55
19.29
15.16
10.72
6.43
2.59
-0.78
-3.97
-7.55
-12.14
-18.08
-25.10
-32.11
-37.33
-38.84
-35.21
-26.17
-12.75
2.94
18.45
31.69
41.47
47.53
50.18
49.91
47.02
41.70
34.20
25.11
15.42
6.28
-1.29
-6.65
-9.57
-10.20
-8.92
-6.30
-2.99
0.37
3.18
5.14
6.27
6.83
7.13
7.21
6.79
5.33
2.44
-1.84
-6.87
-11.47
-14.25
-13.92
-9.61
-1.04
11.38
26.66
43.32
59.69
74.19
85.58
93.21
96.96
97.22
94.65
90.01
84.06
77.42
70.58
63.89
57.55
51.66
46.28
41.46
37.17
33.39
30.05
27.16
24.84
23.30
22.81
23.55
25.52
28.60
32.67
37.62
43.37
49.64
55.77
60.67
63.01
61.65
56.10
46.83
35.22
23.17
12.57
4.81
0.54
-0.32
1.65
5.52
10.31
14.99
18.64
20.44
19.82
16.53
10.79
3.22
-5.24
-13.43
-20.35
-25.31
-28.12
-29.10
-28.87
-28.20
-27.76
-28.06
-29.35
-31.79
-35.39
-40.03
-45.52
-51.65
-58.27
-65.43
-73.20
-81.49
-89.91
-97.63
-103.67
-107.25
-108.09
-106.54
-103.34
-99.29
-94.75
-89.60
-83.22
-74.89
-64.14
-51.00
-36.04
-20.26
-4.86
9.09
20.82
29.95
36.46
40.51
42.41
42.47
41.03
38.49
35.36
32.22
29.63
28.03
27.64
28.48
30.47
33.50
37.46
42.16
47.25
52.27
56.78
60.52
63.42
65.40
66.01
64.30
58.90
48.57
32.88
12.56
-10.57
-34.09
-55.72
-73.71
-87.02
-95.24
-98.35
-96.69
-90.87
-81.92
-71.14
-59.86
-49.28
-40.15
-32.81
-27.27
-23.33
-20.76
-19.35
-18.91
-19.19
-19.87
-20.62
-21.12
-21.21
-20.85
-20.08
-18.90
-17.21
-14.91
-11.98
-8.64
-5.34
-2.67
-1.10
-0.88
-1.96
-4.04
-6.68
-9.41
-11.75
-13.37
-14.19
-14.47
-14.71
-15.42
-16.75
-18.11
-18.20
-15.33
-8.06
4.21
20.93
40.51
60.90
80.25
97.38
112.03
124.53
135.44
145.08
153.46
160.37
165.66
169.51
172.48
175.31
178.70
183.09
188.48
194.37
199.70
202.70
201.10
192.67
175.81
150.24
117.20
79.04
38.38
-2.84
-44.00
-85.86
-130.02
-177.78
-228.88
-280.74
-328.43
-365.90
-387.78
-391.23
-376.84
-348.19
-310.29
-267.76
-223.82
-180.26
-138.41
-99.88
-66.76
-40.85
-22.84
-11.75
-5.48
-1.80
0.59
1.74
0.72
-3.52
-11.22
-21.48
-32.43
-41.87
-48.07
-50.31
-48.99
-45.40
-41.04
-37.11
-34.09
-31.80
-29.70
-27.36
-24.68
-21.96
-19.61
-17.97
-17.16
-17.21
-18.18
-20.22
-23.45
-27.64
-32.05
-35.41
-36.30
-33.52
-26.63
-16.01
-2.77
11.61
25.68
38.25
48.53
56.02
60.50
61.87
60.24
55.94
49.62
42.16
34.61
28.02
23.13
20.30
19.38
19.85
21.00
22.17
22.83
22.58
21.22
18.64
14.89
10.23
5.09
-0.02
-4.62
-8.47
-11.61
-14.39
-17.32
-20.78
-24.82
-28.98
-32.32
-33.66
-31.97
-26.76
-18.25
-7.35
4.62
16.35
26.81
35.35
41.65
45.61
47.18
46.43
43.56
38.97
33.24
27.04
20.98
15.58
11.17
8.02
6.28
5.97
7.00
9.01
11.48
13.79
15.37
15.89
15.21
13.46
10.86
7.74
4.42
1.14
-1.96
-5.01
-8.30
-12.12
-16.45
-20.75
-23.92
-24.59
-21.64
-14.60
-3.93
9.13
23.00
36.16
47.47
56.23
62.06
64.74
64.23
60.65
54.40
46.22
37.03
27.81
19.42
12.45
7.29
4.10
2.88
3.47
5.46
8.20
10.91
12.81
13.36
12.39
10.05
6.77
3.00
-0.89
-4.73
-8.52
-12.43
-16.71
-21.51
-26.69
-31.63
-35.17
-35.86
-32.44
-24.30
-11.87
3.48
19.85
35.45
49.08
60.30
69.17
75.87
80.39
82.48
82.01
79.36
75.59
72.30
71.11
73.03
78.06
85.26
93.16
100.49
106.56
111.56
116.22
121.34
127.39
134.45
142.26
150.32
157.86
163.52
165.33
160.97
148.54
127.21
97.71
61.85
21.63
-21.82
-68.49
-118.56
-170.91
-221.94
-265.75
-295.83
-307.52
-300.05
-276.74
-243.66
-207.21
-172.11
-140.57
-112.95
-88.95
-68.60
-52.41
-40.70
-32.96
-27.61
-22.58
-16.12
-7.60
2.33
12.07
19.86
24.54
25.94
24.90
22.74
20.70
19.39
18.58
17.34
14.50
9.13
0.97
-9.42
-20.75
-31.28
-39.28
-43.36
-42.77
-37.58
-28.66
-17.48
-5.82
4.63
12.61
17.49
19.19
18.09
14.73
9.67
3.47
-3.28
-9.93
-15.79
-20.26
-22.90
-23.55
-22.45
-20.08
-17.16
-14.37
-12.25
-11.01
-10.52
-10.43
-10.37
-10.08
-9.54
-8.87
-8.28
-8.03
-8.36
-9.48
-11.41
-13.78
-15.72
-15.92
-13.01
-6.12
4.76
18.58
33.53
47.64
59.29
67.59
72.40
74.02
72.97
69.74
64.79
58.59
51.71
44.83
38.77
34.33
32.16
32.61
35.53
40.28
45.81
50.95
54.83
57.18
58.38
59.26
60.66
63.01
66.13
69.37
71.88
73.04
72.82
71.99
72.07
75.14
83.43
98.57
120.86
148.68
178.28
204.53
222.20
227.57
219.53
199.86
172.36
141.36
110.12
80.00
50.50
20.04
-12.97
-49.32
-88.79
-130.27
-172.18
-212.91
-250.97
-285.05
-314.05
-337.02
-353.25
-362.35
-364.31
-359.53
-348.85
-333.58
-315.36
-296.04
-277.31
-260.26
-245.04
-230.66
-215.15
-196.13
-171.56
-140.44
-103.19
-61.60
-18.44
23.16
60.14
90.07
111.41
123.82
128.26
127.00
123.13
119.91
119.85
124.16
132.58
143.73
155.77
167.14
176.84
184.33
189.19
190.68
187.69
178.99
163.93
143.11
118.84
94.92
75.87
65.85
67.43
80.77
103.40
130.63
156.67
176.28
186.33
186.77
180.56
172.34
166.44
165.29
168.68
174.24
178.80
179.75
175.89
167.58
156.24
143.86
132.49
123.81
118.75
116.94
116.70
115.30
109.81
98.04
79.13
53.63
22.99
-11.14
-47.53
-85.64
-125.38
-166.63
-208.55
-249.13
-285.41
-314.19
-333.00
-340.91
-338.73
-328.62
-313.20
-294.90
-275.51
-256.28
-238.15
-221.95
-208.33
-197.73
-190.16
-185.28
-182.44
-180.98
-180.22
-179.69
-179.15
-178.59
-178.28
-178.53
-179.54
-181.22
-183.25
-185.28
-187.13
-188.94
-190.95
-193.21
-195.18
-195.73
-193.44
-187.20
-176.67
-162.34
-145.13
-125.84
-104.74
-81.62
-56.30
-29.17
-1.40
25.18
48.78
68.04
82.43
92.12
97.69
99.75
98.85
95.53
90.42
84.38
78.43
73.57
70.49
69.36
69.70
70.54
70.80
69.69
66.97
63.01
58.48
54.05
50.02
46.23
42.18
37.21
30.84
23.06
14.50
6.48
0.75
-0.95
2.57
11.53
25.01
41.20
57.88
73.02
85.23
93.86
99.02
101.23
101.32
100.10
98.32
96.59
95.43
95.22
96.19
98.37
101.44
104.76
107.34
108.18
106.48
101.95
94.83
85.78
75.59
64.82
53.66
41.89
29.11
14.91
-0.91
-18.23
-36.44
-54.37
-70.32
-82.21
-88.01
-86.36
-77.10
-61.60
-42.61
-23.55
-7.67
2.96
7.88
8.08
5.48
1.99
-1.13
-3.42
-5.05
-6.31
-7.21
-7.41
-6.47
-4.13
-0.65
3.38
7.24
10.42
12.72
14.23
15.05
15.12
14.21
12.02
8.35
3.24
-3.05
-10.15
-17.73
-25.58
-33.56
-41.42
-48.50
-53.75
-55.84
-53.59
-46.45
-34.86
-20.19
-4.42
10.49
23.10
32.74
39.39
43.44
45.36
45.57
44.46
42.54
40.46
38.87
38.20
38.51
39.41
40.26
40.46
39.68
37.97
35.64
33.00
30.19
27.10
23.44
18.95
13.56
7.52
1.31
-4.53
-9.55
-13.65
-17.06
-20.32
-24.09
-28.86
-34.84
-41.83
-49.16
-55.83
-60.68
-62.60
-60.80
-55.00
-45.51
-33.21
-19.31
-5.05
8.49
20.51
30.39
37.53
41.31
41.24
37.52
31.49
25.77
23.68
28.28
41.09
61.38
86.20
111.16
131.70
144.36
147.54
141.67
128.78
111.82
93.78
77.11
63.31
52.88
45.55
40.57
37.12
34.42
31.75
28.45
24.03
18.24
11.19
3.29
-4.98
-13.37
-21.92
-30.89
-40.31
-49.64
-57.66
-62.63
-62.96
-57.79
-47.42
-33.31
-17.59
-2.51
10.18
19.47
25.20
27.80
27.99
26.58
24.24
21.43
18.52
15.77
13.44
11.71
10.69
10.33
10.52
11.08
11.91
12.93
13.98
14.80
15.01
14.26
12.40
9.60
6.34
3.20
0.63
-1.19
-2.35
-3.11
-3.72
-4.30
-4.82
-5.15
-5.06
-4.41
-3.19
-1.62
-0.13
0.76
0.74
-0.06
-0.82
-0.16
3.47
11.28
23.68
40.06
58.87
78.02
95.31
108.84
117.29
120.03
117.05
108.80
96.03
79.59
60.42
39.62
18.43
-1.73
-19.54
-33.97
-44.59
-51.57
-55.55
-57.34
-57.70
-57.21
-56.25
-55.09
-53.89
-52.68
-51.39
-49.87
-48.03
-45.95
-43.94
-42.38
-41.61
-41.73
-42.56
-43.67
-44.59
-44.98
-44.75
-44.07
-43.31
-42.82
-42.78
-43.01
-42.95
-41.74
-38.39
-32.14
-22.67
-10.29
4.06
19.02
33.12
45.19
54.58
61.21
65.34
67.34
67.48
65.92
62.89
58.78
54.21
49.84
46.17
43.32
41.03
38.87
36.49
33.72
30.55
27.06
23.28
19.15
14.62
9.67
4.35
-1.30
-7.27
-13.55
-20.06
-26.62
-32.90
-38.55
-43.26
-46.89
-49.47
-51.19
-52.36
-53.35
-54.58
-56.31
-58.53
-60.74
-62.01
-61.22
-57.44
-50.37
-40.44
-28.83
-16.99
-6.27
2.38
8.61
12.47
14.24
14.25
12.78
10.06
6.47
2.49
-1.25
-4.15
-5.82
-6.16
-5.43
-4.06
-2.52
-1.14
-0.02
0.93
1.91
3.07
4.39
5.68
6.63
6.99
6.76
6.14
5.45
4.88
4.27
3.15
0.91
-2.87
-8.13
-14.21
-19.96
-23.80
-24.11
-19.36
-8.40
9.26
33.15
61.69
92.26
121.70
147.04
166.26
178.82
185.62
188.51
189.54
190.16
190.85
191.12
190.03
186.63
180.44
171.44
159.74
145.28
127.54
105.62
78.71
46.32
8.65
-33.51
-78.96
-126.31
-174.02
-220.39
-263.42
-300.95
-330.85
-351.48
-362.04
-362.85
-355.28
-341.38
-323.27
-302.50
-279.60
-254.19
-225.45
-192.90
-157.04
-119.53
-82.75
-49.12
-20.42
2.57
19.97
32.45
40.87
46.08
48.85
49.97
50.21
50.30
50.81
52.08
54.18
56.98
60.26
63.86
67.78
72.20
77.38
83.54
90.69
98.55
106.67
114.61
122.10
129.18
136.11
143.16
150.43
157.68
164.42
170.08
174.17
176.45
177.02
176.26
174.56
172.02
168.08
161.34
149.83
131.58
105.43
71.65
32.05
-10.47
-52.83
-92.53
-128.03
-158.66
-184.12
-204.16
-218.56
-227.34
-231.17
-231.29
-229.26
-226.41
-223.29
-219.64
-214.68
-207.64
-198.21
-186.70
-173.81
-160.36
-147.05
-134.32
-122.54
-111.96
-102.78
-95.03
-88.61
-83.32
-79.05
-75.78
-73.47
-71.81
-69.96
-66.52
-59.91
-48.96
-33.47
-14.40
6.29
26.34
43.81
57.63
67.69
74.50
78.84
81.28
82.06
81.24
79.00
75.88
72.82
71.05
71.64
75.15
81.41
89.58
98.55
107.35
115.53
123.24
131.00
139.34
148.42
157.96
167.37
176.08
183.91
191.15
198.45
206.54
216.09
227.68
241.89
259.21
279.52
301.55
322.52
338.66
346.31
343.19
329.32
306.85
279.04
248.94
218.49
188.36
158.49
128.81
99.38
70.37
41.48
11.76
-20.34
-56.35
-96.94
-141.15
-186.07
-227.31
-260.17
-281.25
-289.58
-287.00
-277.33
-264.90
-253.03
-243.26
-235.52
-228.97
-222.92
-217.36
-212.78
-209.74
-208.34
-208.00
-207.61
-205.81
-201.37
-193.52
-182.03
-167.15
-149.53
-130.08
-109.95
-90.47
-73.08
-59.16
-49.66
-44.93
-44.51
-47.36
-52.19
-57.91
-63.86
-69.88
-76.09
-82.60
-89.33
-95.97
-102.08
-107.36
-111.94
-116.46
-122.11
-130.24
-141.84
-157.01
-174.53
-191.94
-206.11
-214.15
-214.22
-206.12
-191.21
-171.81
-150.41
-128.79
-107.65
-86.60
-64.59
-40.54
-13.79
15.50
46.38
77.29
106.37
131.86
152.42
167.26
176.19
179.50
177.76
171.72
162.24
150.28
136.90
123.20
110.17
98.47
88.25
79.17
70.53
61.53
51.52
40.11
27.24
13.15
-1.66
-16.44
-30.25
-41.99
-50.64
-55.45
-56.17
-53.18
-47.50
-40.50
-33.46
-27.15
-21.43
-15.33
-7.33
4.04
19.60
39.19
61.66
85.19
107.80
127.88
144.46
157.40
167.21
174.74
180.87
186.22
191.07
195.51
199.62
203.70
208.30
214.08
221.63
231.40
243.68
258.66
276.20
295.47
314.43
329.83
337.73
334.60
318.62
290.42
252.91
210.21
166.29
123.81
83.73
45.72
8.82
-27.98
-65.50
-104.39
-144.94
-186.77
-228.43
-267.42
-300.73
-325.89
-341.86
-349.44
-350.89
-349.03
-346.33
-344.21
-343.08
-342.60
-342.18
-341.15
-338.91
-334.85
-328.40
-319.06
-306.61
-291.12
-273.06
-253.24
-232.66
-212.30
-192.94
-175.14
-159.23
-145.44
-133.92
-124.62
-116.97
-109.65
-100.68
-87.81
-69.27
-44.54
-14.69
17.79
49.66
77.96
100.62
116.87
126.96
131.77
132.29
129.43
123.97
116.78
108.87
101.36
95.26
91.23
89.42
89.48
90.71
92.28
93.46
93.71
92.80
90.75
87.78
84.21
80.34
76.38
72.39
68.29
63.83
58.66
52.38
44.78
36.13
27.31
19.81
15.38
15.42
20.52
30.11
42.66
56.07
68.32
77.86
83.91
86.33
85.46
81.92
76.41
69.69
62.50
55.55
49.53
45.03
42.48
42.05
43.66
46.99
51.61
57.04
62.79
68.41
73.43
77.38
79.87
80.67
79.72
77.24
73.51
68.84
63.42
57.22
50.05
41.61
31.80
20.92
9.91
0.27
-6.28
-8.40
-5.70
0.99
9.78
18.21
24.08
26.10
24.19
19.43
13.67
8.93
6.79
8.05
12.45
18.83
25.50
30.68
33.13
32.58
29.80
26.45
24.35
24.83
27.98
32.52
36.20
36.64
32.27
22.91
9.77
-5.19
-20.02
-33.40
-44.90
-54.77
-63.45
-71.21
-77.88
-82.92
-85.66
-85.63
-82.84
-77.74
-71.15
-63.98
-57.05
-51.08
-46.69
-44.47
-44.86
-47.95
-53.21
-59.49
-65.27
-69.19
-70.47
-69.12
-65.75
-61.15
-55.97
-50.53
-44.93
-39.22
-33.59
-28.33
-23.70
-19.79
-16.40
-13.17
-9.71
-5.90
-1.94
1.60
4.03
4.77
3.70
1.26
-1.47
-3.00
-1.66
3.94
14.58
30.25
50.09
72.56
95.85
118.13
137.84
153.84
165.50
172.79
176.29
177.19
177.07
177.50
179.69
184.11
190.50
197.94
205.28
211.53
216.01
218.45
218.86
217.30
213.70
207.77
198.97
186.60
170.00
148.65
122.45
91.78
57.40
20.31
-18.63
-59.10
-101.43
-146.29
-193.99
-243.46
-291.82
-334.67
-367.32
-386.37
-390.94
-382.83
-365.70
-343.63
-319.88
-296.32
-273.68
-252.21
-232.17
-213.95
-197.76
-183.26
-169.50
-155.23
-139.39
-121.56
-102.12
-82.10
-62.74
-45.01
-29.42
-15.95
-4.37
5.53
13.76
20.15
24.54
27.04
28.03
28.09
27.76
27.35
26.75
25.58
23.27
19.39
13.88
7.35
1.04
-3.38
-4.29
-0.65
7.58
19.37
32.92
46.22
57.63
66.21
71.68
74.25
74.26
72.06
67.92
62.17
55.25
47.74
40.30
33.57
28.04
24.00
21.48
20.25
19.93
20.02
20.02
19.51
18.19
15.99
13.01
9.55
6.00
2.68
-0.27
-3.03
-6.07
-10.02
-15.39
-22.34
-30.46
-38.72
-45.64
-49.61
-49.32
-44.17
-34.53
-21.64
-7.38
6.27
17.69
25.86
30.42
31.50
29.54
25.11
18.93
11.78
4.59
-1.77
-6.58
-9.41
-10.10
-8.68
-5.34
-0.35
5.83
12.48
18.74
23.69
26.69
27.56
26.67
24.68
22.28
19.87
17.39
14.38
10.19
4.32
-3.34
-12.31
-21.57
-29.59
-34.78
-35.83
-32.11
-23.94
-12.46
0.60
13.42
24.51
32.93
38.32
40.70
40.26
37.26
32.07
25.19
17.39
9.57
2.73
-2.34
-5.24
-6.07
-5.41
-4.10
-2.96
-2.55
-3.03
-4.26
-5.95
-7.88
-10.00
-12.48
-15.61
-19.61
-24.58
-30.33
-36.39
-42.00
-46.14
-47.71
-45.78
-39.83
-29.97
-17.01
-2.28
12.64
26.23
37.29
45.11
49.41
50.29
48.08
43.31
36.61
28.74
20.58
13.04
6.94
2.86
0.93
0.82
1.84
3.17
4.14
4.45
4.16
3.52
2.80
2.07
1.19
-0.12
-2.18
-5.30
-9.65
-15.25
-21.73
-28.18
-33.28
-35.42
-33.28
-26.32
-15.07
-1.01
13.79
27.33
38.12
45.50
49.42
50.22
48.35
44.28
38.49
31.57
24.25
17.32
11.49
7.21
4.57
3.31
2.97
3.05
3.18
3.16
2.93
2.47
1.69
0.38
-1.71
-4.83
-9.07
-14.44
-20.78
-27.83
-35.09
-41.73
-46.59
-48.33
-45.88
-38.80
-27.56
-13.50
1.57
15.83
27.91
37.01
42.89
45.66
45.56
42.92
38.12
31.70
24.35
16.93
10.30
5.14
1.83
0.29
0.06
0.45
0.80
0.58
-0.48
-2.42
-5.14
-8.42
-11.98
-15.56
-19.02
-22.39
-26.00
-30.34
-35.80
-42.33
-49.13
-54.74
-57.33
-55.28
-47.80
-35.21
-18.93
-1.04
16.26
31.18
42.62
50.16
53.97
54.57
52.68
49.06
44.45
39.53
34.90
31.07
28.33
26.80
26.30
26.47
26.79
26.75
25.94
24.14
21.31
17.52
12.82
7.27
0.95
-6.01
-13.30
-20.53
-27.28
-33.34
-38.74
-43.66
-48.19
-52.06
-54.46
-54.21
-50.12
-41.54
-28.73
-12.91
4.00
19.94
33.26
42.99
48.94
51.53
51.44
49.44
46.14
42.09
37.74
33.59
30.08
27.62
26.38
26.34
27.28
28.92
30.95
33.04
34.86
35.99
35.92
34.21
30.63
25.24
18.39
10.67
2.71
-4.99
-12.26
-19.25
-26.37
-34.13
-42.71
-51.72
-60.01
-65.87
-67.49
-63.59
-53.93
-39.43
-21.98
-3.86
12.85
26.66
36.88
43.41
46.55
46.74
44.52
40.44
35.13
29.35
23.84
19.25
16.02
14.34
14.11
15.05
16.79
18.98
21.42
24.00
26.74
29.58
32.34
34.69
36.21
36.52
35.49
33.19
29.98
26.30
22.59
19.19
16.27
13.80
11.44
8.56
4.34
-1.91
-10.29
-20.02
-29.29
-35.67
-36.88
-31.56
-19.80
-3.13
15.99
35.05
52.23
66.71
78.59
88.45
96.86
104.03
109.91
114.44
117.89
121.07
125.22
131.66
141.39
154.83
171.88
191.91
213.78
235.70
255.08
268.80
273.77
267.86
250.54
223.16
188.45
149.73
110.03
71.57
35.63
2.74
-27.23
-55.01
-81.94
-110.03
-141.84
-179.90
-225.65
-278.12
-333.10
-383.45
-420.86
-438.59
-433.86
-408.80
-369.38
-322.93
-275.58
-230.91
-190.23
-153.78
-121.98
-95.74
-75.82
-62.04
-52.87
-45.95
-39.02
-30.78
-21.14
-11.05
-1.76
5.81
11.44
15.62
19.12
22.59
26.23
29.70
32.37
33.63
33.28
31.56
29.08
26.45
24.07
21.90
19.55
16.45
12.17
6.74
0.77
-4.51
-7.61
-7.17
-2.43
6.47
18.50
31.95
44.93
55.83
63.59
67.81
68.62
66.47
61.96
55.74
48.47
40.86
33.62
27.33
22.36
18.75
16.23
14.40
12.82
11.25
9.55
7.71
5.63
3.16
0.10
-3.67
-8.05
-12.71
-17.20
-21.09
-24.18
-26.61
-28.83
-31.50
-35.19
-40.12
-45.89
-51.48
-55.47
-56.40
-53.29
-45.91
-34.91
-21.53
-7.36
6.06
17.44
25.91
30.95
32.55
31.02
27.05
21.45
15.06
8.54
2.37
-3.11
-7.66
-11.03
-13.06
-13.73
-13.20
-11.78
-9.82
-7.64
-5.45
-3.39
-1.58
-0.23
0.45
0.32
-0.61
-2.15
-4.04
-6.15
-8.56
-11.58
-15.59
-20.64
-26.33
-31.65
-35.26
-35.89
-32.76
-25.87
-16.01
-4.46
7.35
18.26
27.54
34.86
40.16
43.42
44.58
43.53
40.30
35.16
28.72
21.83
15.41
10.18
6.51
4.45
3.76
4.08
5.04
6.33
7.68
8.84
9.58
9.79
9.45
8.60
7.34
5.73
3.75
1.38
-1.37
-4.34
-7.23
-9.50
-10.48
-9.48
-5.86
0.75
10.34
22.45
36.15
50.24
63.46
74.76
83.53
89.75
93.89
96.88
99.71
103.20
107.78
113.38
119.65
126.22
133.02
140.36
148.87
159.28
172.23
188.18
207.32
229.36
253.11
276.28
295.49
307.05
308.03
297.36
276.21
247.58
215.31
182.83
152.38
124.80
99.80
76.34
53.03
28.42
1.33
-28.79
-61.63
-96.06
-130.55
-163.81
-195.26
-225.30
-255.33
-287.50
-324.29
-367.61
-417.46
-470.67
-520.67
-558.74
-576.72
-570.15
-540.14
-493.13
-438.36
-384.48
-336.87
-297.01
-263.65
-234.83
-209.37
-187.16
-168.39
-152.66
-138.77
-125.28
-111.37
-97.43
-84.85
-75.27
-69.47
-66.70
-64.67
-60.36
-51.08
-35.51
-14.17
10.83
36.58
60.28
80.08
95.31
106.31
113.95
119.11
122.30
123.61
122.90
120.12
115.58
109.98
104.25
99.33
95.82
93.76
92.70
91.86
90.35
87.57
83.24
77.46
70.66
63.32
55.95
48.93
42.45
36.43
30.61
24.49
17.55
9.46
0.35
-8.94
-16.98
-22.05
-22.73
-18.37
-9.41
2.82
16.46
29.70
41.17
50.09
56.20
59.47
60.00
57.86
53.27
46.65
38.67
30.20
22.16
15.24
9.85
6.00
3.35
1.44
-0.19
-1.86
-3.69
-5.65
-7.60
-9.47
-11.27
-13.17
-15.39
-18.18
-21.71
-26.01
-30.85
-35.74
-39.91
-42.39
-42.24
-38.72
-31.63
-21.34
-8.74
4.92
18.29
30.09
39.33
45.39
48.11
47.82
45.21
41.17
36.53
31.84
27.37
23.24
19.54
16.46
14.30
13.31
13.68
15.43
18.52
22.82
28.04
33.66
38.87
42.70
44.24
42.99
39.01
32.78
24.99
16.22
6.86
-2.72
-11.85
-19.40
-23.87
-23.82
-18.50
-8.28
5.28
19.90
33.24
43.62
50.38
53.77
54.56
53.50
51.01
47.17
41.95
35.50
28.41
21.63
16.14
12.62
11.19
11.38
12.32
13.16
13.36
12.92
12.28
12.09
12.87
14.71
17.28
19.93
22.01
23.22
23.75
24.19
25.34
27.89
32.27
38.60
46.95
57.40
70.21
85.73
104.19
125.54
149.43
175.28
202.42
229.95
256.45
279.72
296.96
305.44
303.47
291.08
270.09
243.34
213.58
182.60
151.03
118.91
86.23
53.42
21.10
-10.54
-42.15
-75.23
-111.79
-153.86
-202.74
-258.33
-318.33
-377.97
-430.60
-469.35
-489.26
-489.08
-471.56
-442.16
-406.68
-369.21
-331.43
-293.34
-254.81
-216.72
-181.02
-149.78
-124.07
-103.42
-86.22
-70.79
-56.33
-43.16
-32.37
-24.87
-20.66
-18.61
-16.90
-13.80
-8.42
-1.08
6.98
14.10
18.97
21.08
20.80
19.13
17.18
15.73
14.88
14.09
12.34
8.66
2.57
-5.60
-14.54
-22.32
-26.85
-26.54
-20.78
-10.07
4.14
19.99
35.62
49.63
61.15
69.78
75.39
78.01
77.80
75.07
70.32
64.16
57.35
50.59
44.54
39.69
36.26
34.16
33.02
32.25
31.20
29.39
26.62
23.02
18.90
14.55
10.12
5.50
0.38
-5.57
-12.60
-20.73
-29.63
-38.60
-46.57
-52.16
-54.01
-51.17
-43.40
-31.44
-16.82
-1.49
12.73
24.53
33.34
39.21
42.50
43.69
43.15
41.18
38.10
34.24
30.03
25.92
22.35
19.68
18.16
17.79
18.36
19.44
20.44
20.76
20.04
18.15
15.29
11.75
7.82
3.61
-0.93
-5.93
-11.46
-17.54
-24.03
-30.64
-36.81
-41.65
-43.99
-42.63
-36.75
-26.32
-12.26
3.74
19.66
33.72
44.75
52.31
56.50
57.75
56.59
53.54
49.15
43.99
38.64
33.59
29.23
25.76
23.27
21.75
21.15
21.33
22.02
22.75
22.94
22.05
19.74
16.01
11.15
5.66
-0.00
-5.62
-11.27
-17.30
-24.13
-32.04
-40.84
-49.78
-57.59
-62.69
-63.65
-59.60
-50.51
-37.28
-21.41
-4.71
11.13
24.77
35.37
42.59
46.47
47.42
46.01
42.86
38.58
33.67
28.57
23.75
19.67
16.74
15.20
15.01
15.87
17.27
18.63
19.45
19.36
18.06
15.44
11.55
6.67
1.27
-4.09
-8.98
-13.28
-17.32
-21.70
-27.02
-33.43
-40.44
-46.85
-51.03
-51.44
-47.06
-37.75
-24.34
-8.36
8.28
23.75
36.63
46.04
51.62
53.43
51.82
47.34
40.79
33.15
25.44
18.64
13.41
10.02
8.36
8.06
8.68
9.82
11.18
12.56
13.70
14.33
14.13
12.89
10.59
7.39
3.63
-0.32
-4.18
-7.90
-11.59
-15.50
-19.92
-25.02
-30.79
-36.90
-42.69
-47.14
-49.07
-47.42
-41.58
-31.71
-18.78
-4.35
9.84
22.32
32.21
39.21
43.43
45.08
44.38
41.57
37.05
31.56
26.04
21.42
18.29
16.76
16.47
16.89
17.61
18.44
19.47
20.79
22.32
23.69
24.35
23.80
21.78
18.40
14.04
9.28
4.62
0.34
-3.50
-7.12
-10.90
-15.25
-20.46
-26.48
-32.83
-38.54
-42.35
-43.03
-39.79
-32.59
-22.18
-9.93
2.58
13.96
23.31
30.19
34.52
36.34
35.82
33.23
29.08
24.19
19.51
16.03
14.34
14.55
16.25
18.72
21.22
23.24
24.65
25.50
25.91
25.78
24.83
22.69
19.16
14.38
8.80
3.07
-2.33
-7.19
-11.65
-16.12
-21.03
-26.63
-32.83
-39.15
-44.65
-48.19
-48.65
-45.31
-38.15
-27.96
-16.21
-4.62
5.29
12.61
17.34
20.37
23.23
27.74
35.44
47.25
63.20
82.51
103.73
124.96
144.16
159.36
169.08
172.67
170.67
164.78
157.49
151.19
147.29
145.56
144.04
139.64
129.09
110.02
81.57
44.67
1.68
-44.12
-89.13
-130.04
-164.07
-189.19
-204.23
-208.96
-204.15
-191.52
-173.53
-152.90
-132.20
-113.28
-97.12
-83.81
-72.91
-63.79
-55.99
-49.31
-43.72
-39.18
-35.42
-31.99
-28.36
-24.10
-19.11
-13.55
-7.92
-2.81
1.17
3.55
4.16
3.14
0.92
-1.92
-4.87
-7.74
-10.65
-14.00
-18.22
-23.45
-29.34
-34.97
-39.02
-40.16
-37.46
-30.75
-20.72
-8.75
3.52
14.62
23.55
29.83
33.40
34.40
33.05
29.59
24.44
18.24
11.80
5.97
1.51
-1.07
-1.61
-0.26
2.49
5.96
9.36
12.00
13.43
13.57
12.61
10.91
8.81
6.49
4.00
1.27
-1.88
-5.62
-10.09
-15.27
-20.78
-25.85
-29.30
-29.93
-26.94
-20.25
-10.68
0.37
11.29
20.72
27.73
31.90
33.13
31.57
27.59
21.73
14.70
7.21
-0.07
-6.67
-12.25
-16.56
-19.47
-20.91
-21.07
-20.31
-19.13
-17.98
-17.16
-16.80
-16.90
-17.54
-18.86
-21.06
-24.26
-28.38
-33.21
-38.46
-43.94
-49.42
-54.54
-58.61
-60.62
-59.50
-54.51
-45.71
-34.03
-21.11
-8.74
1.63
9.27
14.15
16.72
17.53
17.02
15.40
12.87
9.68
6.32
3.41
1.59
1.25
2.45
4.86
7.87
10.79
12.99
14.09
13.96
12.81
11.02
9.08
7.40
6.20
5.40
4.62
3.32
0.96
-2.67
-7.24
-11.87
-15.25
-16.11
-13.59
-7.62
1.02
10.96
20.65
28.78
34.59
37.89
38.91
38.06
35.79
32.47
28.47
24.16
19.96
16.26
13.32
11.18
9.64
8.40
7.15
5.75
4.26
2.88
1.78
0.99
0.34
-0.53
-2.00
-4.44
-8.05
-12.90
-18.91
-25.72
-32.65
-38.66
-42.51
-43.05
-39.62
-32.28
-21.81
-9.52
3.22
15.16
25.33
33.05
37.88
39.59
38.29
34.50
29.11
23.23
17.97
14.23
12.49
12.81
14.82
17.95
21.57
25.28
29.02
33.01
37.58
42.84
48.48
53.75
57.75
59.79
59.80
58.40
56.79
56.34
58.24
63.13
71.23
82.39
96.30
112.57
130.71
150.06
169.82
189.18
207.43
223.94
237.93
248.30
253.67
252.86
245.40
231.87
213.85
193.24
171.54
149.39
126.67
103.03
78.32
52.85
27.02
0.82
-26.49
-56.44
-91.02
-132.29
-181.52
-238.29
-299.55
-359.46
-410.32
-444.61
-457.45
-448.20
-420.52
-380.74
-335.48
-289.71
-246.21
-206.16
-170.30
-139.67
-115.36
-97.90
-86.67
-79.88
-75.28
-70.94
-65.84
-59.86
-53.59
-47.67
-42.42
-37.69
-32.96
-27.65
-21.47
-14.65
-7.87
-2.11
1.75
3.20
2.29
-0.57
-4.69
-9.41
-14.15
-18.32
-21.26
-22.15
-20.17
-14.81
-6.15
5.10
17.64
30.04
41.01
49.65
55.50
58.37
58.26
55.40
50.31
43.79
36.96
30.90
26.38
23.69
22.66
22.77
23.46
24.23
24.75
24.84
24.36
23.22
21.39
18.89
15.74
12.00
7.67
2.71
-2.79
-8.53
-13.86
-17.83
-19.42
-17.92
-13.15
-5.60
3.73
13.65
23.05
31.08
37.18
40.92
42.00
40.25
35.77
29.05
20.98
12.63
5.00
-1.22
-5.78
-8.83
-10.73
-11.90
-12.72
-13.49
-14.41
-15.62
-17.20
-19.23
-21.77
-24.97
-28.95
-33.79
-39.38
-45.31
-50.76
-54.62
-55.70
-52.98
-46.02
-35.08
-21.18
-5.90
9.02
22.10
32.37
39.41
43.20
43.90
41.75
37.09
30.53
22.98
15.61
9.50
5.41
3.50
3.38
4.36
5.64
6.67
7.15
7.08
6.54
5.59
4.21
2.21
-0.60
-4.48
-9.52
-15.58
-22.11
-28.16
-32.43
-33.50
-30.30
-22.41
-10.26
4.81
20.97
36.32
49.30
59.04
65.31
68.40
68.86
67.37
64.56
61.11
57.71
55.09
53.94
54.77
57.77
62.71
68.89
75.30
80.84
84.64
86.39
86.48
85.85
85.69
86.89
89.58
93.06
96.11
97.71
97.78
97.53
99.30
105.86
119.53
141.49
171.39
207.22
245.46
281.40
309.88
326.37
328.20
315.35
290.38
257.41
220.56
182.68
144.91
107.21
69.37
31.61
-5.35
-40.92
-75.24
-109.42
-145.06
-183.70
-226.39
-273.67
-325.28
-379.75
-433.92
-482.86
-520.71
-542.43
-545.53
-530.99
-502.58
-465.02
-422.07
-375.53
-325.78
-273.19
-219.37
-167.33
-120.47
-81.18
-49.88
-25.17
-4.94
12.45
27.52
39.75
48.32
53.04
54.85
55.62
57.49
62.00
69.55
79.26
89.47
98.51
105.34
109.90
112.85
115.09
117.10
118.62
118.77
116.44
110.77
101.55
89.25
74.76
59.10
43.20
27.86
14.01
2.82
-4.39
-6.41
-2.65
6.49
19.63
34.67
49.37
61.89
71.04
76.43
78.17
76.79
72.92
67.32
60.76
54.04
47.93
43.11
40.07
39.08
40.07
42.63
46.11
49.77
52.96
55.31
56.66
56.99
56.25
54.37
51.26
47.08
42.16
36.97
31.90
27.15
22.74
18.73
15.43
13.44
13.51
16.15
21.34
28.43
36.25
43.54
49.25
52.78
54.01
53.05
50.13
45.37
38.84
30.62
21.02
10.64
0.38
-8.82
-16.22
-21.54
-25.09
-27.62
-30.06
-33.22
-37.47
-42.67
-48.36
-54.00
-59.27
-64.20
-69.14
-74.53
-80.71
-87.74
-95.32
-102.79
-109.07
-112.69
-112.01
-105.74
-93.55
-76.54
-57.17
-38.59
-23.48
-12.99
-6.33
-1.34
4.35
12.05
21.29
30.07
35.87
36.85
32.64
24.37
13.99
3.41
-6.06
-13.82
-19.62
-23.20
-24.13
-22.04
-16.97
-9.67
-1.57
5.48
9.61
9.24
3.28
-8.80
-26.86
-50.00
-76.44
-103.64
-128.57
-148.29
-160.47
-163.77
-158.11
-144.55
-125.08
-102.26
-78.84
-57.37
-39.83
-27.40
-20.31
-17.86
-18.64
-20.90
-22.95
-23.50
-21.88
-18.06
-12.52
-6.02
0.59
6.64
11.66
15.47
18.00
19.30
19.38
18.23
15.87
12.39
7.93
2.67
-3.17
-9.31
-15.25
-20.18
-23.02
-22.57
-17.91
-8.77
4.31
20.06
36.82
52.92
67.00
78.12
85.77
89.86
90.76
89.27
86.56
83.89
82.35
82.59
84.74
88.56
93.62
99.64
106.59
114.59
123.77
134.12
145.31
156.70
167.40
176.49
183.27
187.59
190.07
192.13
195.72
202.63
213.54
227.29
240.76
249.67
249.94
239.22
217.66
187.56
152.31
114.90
77.05
39.07
0.37
-39.88
-82.30
-127.16
-174.17
-222.17
-268.93
-311.21
-345.55
-369.36
-381.91
-384.59
-380.26
-372.09
-362.48
-352.57
-342.38
-331.46
-319.41
-306.16
-291.87
-276.77
-261.06
-245.00
-228.97
-213.49
-198.87
-184.99
-170.97
-155.24
-136.01
-111.88
-82.50
-48.89
-13.24
21.62
52.96
78.83
98.33
111.51
119.11
122.16
121.69
118.59
113.64
107.62
101.34
95.63
91.18
88.33
87.00
86.72
86.87
86.83
86.17
84.71
82.48
79.65
76.43
73.06
69.68
66.32
62.75
58.60
53.51
47.47
41.03
35.38
32.12
32.74
38.13
48.21
61.89
77.35
92.58
105.85
116.17
123.37
127.98
130.90
133.08
135.21
137.64
140.46
143.70
147.49
152.20
158.36
166.68
177.83
192.38
210.50
231.42
253.10
272.10
284.20
285.61
274.26
250.49
217.02
177.73
136.32
95.21
55.19
15.87
-23.60
-63.74
-104.40
-144.67
-183.11
-218.10
-248.18
-272.35
-290.24
-302.07
-308.49
-310.47
-309.20
-306.10
-302.62
-299.98
-298.67
-298.10
-296.50
-291.35
-280.18
-261.45
-235.09
-202.52
-166.17
-128.84
-92.97
-60.32
-31.89
-8.03
11.48
27.25
40.26
51.73
62.91
74.98
89.00
106.00
126.84
151.85
180.12
208.95
234.16
251.24
257.00
250.75
234.24
210.34
181.24
147.24
106.93
58.75
2.80
-58.13
-119.08
-174.64
-220.88
-256.51
-282.63
-301.46
-314.91
-323.81
-327.92
-326.78
-320.47
-309.93
-296.55
-281.47
-264.93
-246.22
-224.12
-197.62
-166.43
-131.14
-93.13
-54.29
-16.75
17.45
46.83
70.84
90.09
106.12
120.72
135.17
149.81
164.01
176.65
186.55
192.82
194.80
191.94
183.93
170.96
154.32
136.50
120.85
110.63
107.86
112.50
122.37
133.87
143.18
147.32
144.80
135.37
119.54
97.91
70.98
39.41
4.37
-32.03
-66.87
-96.80
-118.69
-130.27
-130.63
-120.46
-101.95
-78.32
-53.14
-29.56
-9.74
5.39
15.86
22.26
25.32
25.73
24.17
21.47
18.63
16.72
16.57
18.56
22.45
27.54
32.95
37.89
41.98
45.19
47.75
49.84
51.35
51.88
50.88
47.85
42.61
35.33
26.48
16.74
6.93
-1.99
-9.00
-13.12
-13.67
-10.54
-4.29
4.00
12.94
21.23
27.85
32.15
33.74
32.54
28.67
22.65
15.35
7.97
1.87
-1.76
-2.12
1.00
7.07
15.03
23.52
31.23
37.19
41.01
42.65
42.33
40.23
36.39
30.73
23.17
13.86
3.11
-8.47
-20.13
-30.97
-39.94
-45.92
-47.91
-45.32
-38.21
-27.46
-14.56
-1.30
10.69
20.20
26.54
29.52
29.26
26.12
20.69
13.83
6.61
0.17
-4.52
-6.96
-7.27
-6.15
-4.55
-3.35
-3.01
-3.50
-4.43
-5.37
-6.09
-6.78
-7.91
-9.99
-13.38
-18.13
-23.98
-30.38
-36.50
-41.32
-43.74
-42.81
-38.08
-29.86
-19.22
-7.73
2.96
11.50
17.13
19.59
19.05
15.85
10.52
3.77
-3.53
-10.41
-15.96
-19.64
-21.37
-21.57
-20.91
-20.14
-19.78
-20.00
-20.68
-21.60
-22.65
-23.91
-25.78
-28.77
-33.29
-39.37
-46.44
-53.37
-58.60
-60.59
-58.23
-51.26
-40.37
-27.03
-13.09
-0.22
10.44
18.37
23.56
26.24
26.65
24.98
21.53
16.80
11.51
6.49
2.46
-0.18
-1.48
-1.86
-1.94
-2.30
-3.33
-5.08
-7.39
-9.92
-12.42
-14.83
-17.25
-19.94
-23.14
-26.94
-31.34
-36.18
-41.18
-45.76
-49.02
-49.81
-47.06
-40.24
-29.74
-16.82
-3.22
9.48
20.42
29.57
37.51
44.86
51.97
58.72
64.76
69.76
73.50
75.91
76.99
76.73
75.17
72.50
69.03
65.21
61.39
57.70
54.01
50.01
45.38
39.91
33.53
26.37
18.61
10.43
1.95
-6.71
-15.51
-24.28
-32.63
-39.70
-44.22
-44.67
-39.77
-28.99
-12.92
6.84
28.14
48.92
67.74
83.91
97.18
107.44
114.52
118.34
119.29
118.35
116.94
116.46
117.62
120.19
123.09
124.86
124.26
120.66
114.18
105.52
95.63
85.44
75.71
66.93
59.34
52.92
47.45
42.51
37.58
32.15
25.72
17.81
8.03
-3.93
-18.12
-34.12
-50.84
-66.53
-78.99
-86.19
-86.89
-81.09
-70.16
-56.41
-42.39
-30.30
-21.47
-16.36
-14.73
-15.95
-19.30
-23.96
-29.07
-33.68
-36.93
-38.21
-37.41
-35.00
-31.84
-28.94
-27.00
-26.19
-26.16
-26.25
-25.91
-24.98
-23.89
-23.36
-24.18
-26.73
-30.86
-35.95
-41.18
-45.81
-49.48
-52.23
-54.37
-56.39
-58.72
-61.68
-65.33
-69.43
-73.36
-76.19
-76.80
-74.26
-68.28
-59.35
-48.67
-37.77
-27.90
-19.72
-13.12
-7.59
-2.48
2.52
7.42
11.98
15.97
19.39
22.53
25.83
29.70
34.25
39.17
43.82
47.42
49.39
49.58
48.24
45.91
43.09
40.04
36.84
33.51
30.27
27.44
25.42
24.33
23.83
23.24
21.83
19.18
15.50
11.59
8.57
7.54
9.18
13.59
20.41
28.92
38.29
47.70
56.46
63.95
69.74
73.56
75.25
74.72
71.98
67.20
60.79
53.59
46.69
41.34
38.60
39.12
43.09
50.26
60.09
71.72
84.06
95.76
105.51
112.33
116.02
117.22
117.27
117.80
120.23
125.46
133.75
144.67
156.94
168.42
176.24
177.49
169.95
152.98
127.78
96.94
63.50
29.87
-2.88
-35.06
-67.67
-101.53
-136.38
-170.52
-201.17
-225.31
-240.78
-246.99
-245.17
-237.71
-227.33
-216.20
-205.54
-195.89
-187.52
-180.80
-176.19
-173.90
-173.54
-174.08
-174.18
-172.79
-169.47
-164.51
-158.60
-152.32
-145.77
-138.46
-129.48
-117.95
-103.44
-86.30
-67.71
-49.46
-33.54
-21.63
-14.63
-12.51
-14.28
-18.23
-22.38
-24.93
-24.59
-20.81
-13.80
-4.45
5.91
15.83
24.05
29.81
32.94
33.75
32.85
30.92
28.50
25.94
23.38
20.84
18.26
15.56
12.68
9.60
6.47
3.51
0.99
-1.00
-2.59
-4.28
-6.65
-10.23
-15.25
-21.50
-28.44
-35.43
-41.94
-47.75
-52.96
-57.92
-63.06
-68.70
-74.84
-80.96
-86.02
-88.55
-87.07
-80.53
-68.78
-52.67
-33.97
-14.80
2.88
17.68
28.90
36.39
40.36
41.11
38.98
34.42
28.12
20.98
13.98
7.95
3.28
-0.07
-2.57
-4.82
-7.39
-10.66
-14.90
-20.33
-27.20
-35.66
-45.66
-56.80
-68.29
-79.12
-88.34
-95.35
-100.11
-103.10
-105.21
-107.40
-110.33
-113.99
-117.55
-119.46
-117.75
-110.72
-97.52
-78.61
-55.67
-31.20
-7.79
12.50
28.46
39.72
46.42
48.98
47.96
44.09
38.37
32.01
26.16
21.64
18.71
17.02
15.86
14.53
12.62
10.23
7.87
6.37
6.71
9.87
16.59
27.11
40.91
56.60
72.15
85.38
94.37
97.89
95.36
86.81
72.75
54.18
32.75
10.86
-8.60
-22.73
-29.45
-28.02
-19.29
-5.34
11.07
27.27
41.12
51.32
57.38
59.43
57.94
53.45
46.41
37.25
26.47
14.83
3.31
-7.02
-15.33
-21.22
-24.79
-26.38
-26.32
-24.63
-21.02
-15.16
-7.01
2.98
13.82
24.23
32.95
39.10
42.27
42.51
40.23
36.06
30.64
24.47
17.80
10.63
2.80
-5.75
-14.74
-23.45
-30.75
-35.42
-36.45
-33.46
-26.76
-17.37
-6.62
4.12
13.77
21.66
27.46
31.10
32.65
32.22
30.09
26.69
22.57
18.37
14.58
11.54
9.36
8.03
7.51
7.72
8.56
9.83
11.19
12.27
12.66
12.16
10.70
8.43
5.58
2.30
-1.35
-5.55
-10.61
-16.86
-24.49
-33.22
-42.31
-50.50
-56.31
-58.39
-56.01
-49.20
-38.88
-26.47
-13.60
-1.63
8.55
16.58
22.48
26.48
28.83
29.75
29.44
28.13
26.13
23.80
21.55
19.66
18.28
17.39
16.92
16.82
17.08
17.70
18.61
19.60
20.31
20.42
19.77
18.37
16.40
14.09
11.58
8.94
6.08
2.87
-0.95
-5.58
-11.13
-17.38
-23.64
-28.76
-31.38
-30.36
-25.23
-16.33
-4.75
8.03
20.58
31.81
41.05
48.02
52.65
54.98
55.15
53.47
50.42
46.59
42.60
38.90
35.73
33.05
30.75
28.78
27.21
26.23
25.93
26.25
26.85
27.26
26.98
25.67
23.27
19.95
16.02
11.85
7.75
3.86
0.17
-3.60
-7.85
-12.99
-19.10
-25.76
-32.01
-36.51
-38.02
-35.74
-29.64
-20.41
-9.23
2.56
13.80
23.66
31.59
37.33
40.86
42.32
42.02
40.40
37.89
34.90
31.72
28.59
25.68
23.19
21.27
20.02
19.49
19.59
20.19
21.03
21.80
22.15
21.76
20.41
18.04
14.81
11.04
7.16
3.49
0.19
-2.82
-5.85
-9.31
-13.57
-18.77
-24.69
-30.61
-35.53
-38.30
-37.96
-34.08
-26.85
-17.08
-5.91
5.41
15.87
24.71
31.55
36.21
38.74
39.30
38.23
35.95
32.92
29.58
26.26
23.15
20.32
17.81
15.73
14.27
13.59
13.75
14.57
15.64
16.42
16.41
15.31
13.12
10.06
6.55
2.99
-0.26
-3.07
-5.51
-7.88
-10.64
-14.22
-18.85
-24.33
-29.93
-34.53
-36.80
-35.61
-30.34
-21.16
-8.99
4.67
18.20
30.22
39.96
47.27
52.53
56.35
59.32
61.85
64.18
66.37
68.47
70.53
72.73
75.33
78.69
83.16
88.96
96.07
104.14
112.62
120.97
128.85
136.37
144.12
153.12
164.48
179.12
197.34
218.52
240.94
261.96
278.56
288.09
289.11
281.77
267.79
249.90
231.03
213.69
199.49
189.21
182.92
180.20
180.12
181.40
182.45
181.64
177.71
170.00
158.51
143.69
126.01
105.71
82.66
56.47
26.67
-7.23
-45.64
-88.58
-135.22
-183.39
-229.58
-269.56
-299.67
-318.15
-325.64
-324.82
-319.11
-311.38
-303.34
-295.61
-288.47
-282.53
-278.78
-278.11
-280.75
-285.86
-291.82
-296.83
-299.54
-299.34
-296.26
-290.64
-282.81
-272.91
-261.13
-247.85
-233.71
-219.43
-205.30
-190.66
-173.66
-151.58
-121.92
-83.75
-38.82
8.25
51.00
83.02
100.17
102.08
92.26
76.84
62.49
54.36
54.82
63.32
77.16
92.60
106.05
114.84
117.64
114.37
105.86
93.34
77.88
60.29
41.07
20.66
-0.36
-21.35
-41.95
-62.25
-82.83
-104.41
-127.10
-149.98
-171.01
-187.46
-196.89
-198.18
-192.01
-180.62
-167.19
-154.59
-144.70
-138.04
-133.79
-130.30
-125.43
-116.76
-101.84
-78.64
-46.16
-5.17
41.22
88.07
129.44
159.95
176.48
180.15
174.70
165.90
159.50
157.69
160.31
164.96
167.87
165.25
153.42
129.66
93.62
48.09
-0.83
-44.48
-74.55
-85.83
-77.95
-55.00
-23.28
11.74
47.07
82.08
117.25
152.30
185.52
214.46
237.06
252.42
260.50
261.44
254.74
239.50
215.06
181.43
139.58
90.92
37.06
-19.66
-75.19
-123.11
-155.53
-165.89
-152.32
-119.65
-78.63
-42.03
-19.82
-15.68
-26.96
-47.54
-71.85
-97.35
-124.01
-151.75
-177.74
-195.71
-197.87
-178.25
-135.87
-75.78
-8.23
54.58
102.07
128.19
132.53
119.29
94.63
63.72
29.16
-8.75
-49.66
-90.71
-125.56
-145.81
-143.97
-116.50
-65.23
3.04
78.39
150.16
208.68
246.56
259.58
247.35
213.51
164.96
109.96
55.83
7.48
-32.40
-62.06
-79.36
-82.15
-70.08
-46.71
-20.06
-0.64
2.37
-15.36
-52.17
-101.90
-157.61
-214.56
-270.81
-325.39
-375.76
-416.59
-441.22
-444.61
-426.10
-389.86
-343.10
-292.94
-244.09
-198.26
-155.36
-115.29
-78.84
-47.35
-21.56
-0.70
17.61
36.26
57.41
81.63
108.00
134.79
160.41
183.90
205.17
224.97
244.88
267.26
294.65
328.53
367.82
408.12
442.29
462.65
463.82
444.97
410.07
366.09
320.14
277.08
238.44
203.29
169.74
136.17
101.54
64.89
25.22
-18.01
-63.65
-108.24
-146.36
-172.44
-182.93
-177.94
-161.28
-138.83
-116.47
-98.21
-85.68
-78.64
-76.03
-76.74
-79.88
-84.53
-89.57
-93.70
-95.64
-94.48
-89.85
-81.97
-71.63
-60.03
-48.47
-38.07
-29.46
-22.79
-18.05
-15.34
-14.96
-17.17
-21.63
-27.17
-32.07
-34.87
-35.26
-34.49
-34.82
-38.42
-46.20
-57.37
-69.81
-81.21
-90.08
-96.20
-100.36
-103.74
-107.27
-111.43
-116.31
-121.83
-127.97
-134.68
-141.80
-148.89
-155.24
-159.90
-161.92
-160.42
-154.52
-143.33
-125.95
-101.79
-71.04
-35.22
2.73
38.87
69.20
90.82
102.69
105.75
102.35
95.32
87.04
79.05
72.01
65.98
60.79
56.21
52.04
48.06
44.18
40.53
37.49
35.73
35.92
38.46
43.19
49.37
55.84
61.40
65.18
66.77
66.26
64.01
60.44
55.87
50.52
44.53
38.07
31.36
24.71
18.50
13.06
8.65
5.25
2.66
0.58
-1.24
-2.82
-4.06
-4.75
-4.89
-4.62
-4.24
-4.12
-4.60
-5.94
-8.37
-11.98
-16.60
-21.63
-25.96
-28.11
-26.75
-21.16
-11.68
0.36
12.99
24.22
32.55
37.32
38.69
37.41
34.53
31.09
27.92
25.59
24.30
23.93
24.11
24.29
23.93
22.66
20.33
17.08
13.25
9.28
5.51
2.03
-1.40
-5.34
-10.40
-16.99
-25.05
-34.03
-43.00
-51.11
-57.91
-63.58
-68.78
-74.20
-80.09
-85.92
-90.41
-91.95
-89.23
-81.81
-70.40
-56.60
-42.36
-29.22
-17.74
-7.37
3.20
15.29
29.61
45.65
61.73
75.26
83.44
84.13
76.49
61.55
42.19
22.66
7.59
0.69
3.69
15.80
33.96
53.86
71.36
83.53
89.25
88.94
83.88
75.52
65.05
53.48
41.84
31.37
23.42
18.98
18.32
20.65
24.37
27.58
28.83
27.53
24.08
19.53
14.98
11.12
7.99
5.19
2.26
-0.91
-4.05
-6.63
-8.31
-9.22
-10.03
-11.64
-14.76
-19.49
-25.35
-31.43
-36.82
-40.95
-43.66
-45.09
-45.43
-44.80
-43.31
-41.20
-38.99
-37.44
-37.32
-39.08
-42.67
-47.60
-53.31
-59.40
-65.86
-72.92
-80.59
-88.38
-95.25
-99.84
-100.89
-97.57
-89.41
-76.18
-57.86
-34.95
-8.96
17.34
40.31
56.50
63.91
62.74
55.28
44.73
33.92
24.46
16.65
10.19
4.86
0.89
-1.31
-1.62
-0.63
0.57
0.80
-0.60
-3.56
-7.39
-11.18
-14.25
-16.29
-17.45
-18.08
-18.58
-19.36
-20.75
-23.08
-26.60
-31.20
-36.32
-40.83
-43.19
-41.93
-36.04
-25.37
-10.69
6.58
24.70
42.06
57.36
69.66
78.33
83.05
83.81
81.09
75.82
69.27
62.81
57.58
54.32
53.23
54.16
56.69
60.30
64.44
68.63
72.51
75.91
78.97
82.04
85.59
89.93
94.97
100.19
104.67
107.47
107.82
105.32
99.95
92.01
82.13
71.23
60.61
51.79
46.24
44.85
47.53
53.15
59.74
65.12
67.60
66.40
61.67
54.27
45.23
35.45
25.57
15.98
7.02
-0.92
-7.40
-12.18
-15.26
-16.98
-17.89
-18.51
-19.26
-20.30
-21.62
-23.12
-24.74
-26.42
-28.06
-29.47
-30.50
-31.18
-31.92
-33.54
-37.08
-43.40
-52.85
-65.00
-78.63
-91.94
-103.04
-110.39
-113.13
-111.31
-105.65
-97.35
-87.58
-77.29
-67.05
-57.22
-48.07
-40.09
-33.85
-29.83
-28.22
-28.69
-30.53
-32.78
-34.56
-35.25
-34.58
-32.56
-29.43
-25.49
-21.03
-16.28
-11.40
-6.55
-1.92
2.30
5.95
9.03
11.61
13.81
15.54
16.61
16.81
16.23
15.40
15.13
16.00
17.82
19.48
19.32
15.93
8.87
-1.06
-12.28
-23.24
-33.01
-41.48
-48.90
-55.39
-60.86
-65.33
-69.37
-74.31
-81.74
-92.60
-106.47
-121.49
-135.14
-145.28
-151.09
-153.18
-152.84
-151.15
-148.24
-143.32
-135.32
-123.73
-109.12
-93.12
-77.71
-64.35
-53.19
-42.96
-31.39
-16.08
4.50
30.38
60.19
91.69
122.62
151.40
177.38
200.50
220.89
238.42
252.65
263.22
270.24
274.67
278.21
282.88
290.42
301.79
317.03
335.52
356.36
378.42
400.18
419.44
433.18
438.13
431.64
412.69
382.41
343.72
300.40
255.93
212.62
171.48
132.51
95.24
59.07
23.39
-12.55
-49.77
-89.29
-131.66
-176.30
-221.11
-262.67
-297.11
-321.47
-334.80
-338.47
-335.57
-329.61
-323.15
-317.18
-311.30
-304.49
-295.92
-285.35
-273.09
-259.62
-245.35
-230.56
-215.47
-200.36
-185.54
-171.36
-158.12
-146.11
-135.60
-126.78
-119.72
-114.41
-110.92
-109.46
-110.42
-113.87
-118.99
-123.61
-124.37
-117.71
-101.18
-74.70
-40.86
-4.12
30.61
59.49
80.55
93.63
99.61
99.61
94.60
85.43
73.12
59.01
44.71
31.67
20.84
12.46
6.14
1.13
-3.30
-7.74
-12.59
-18.15
-24.91
-33.45
-44.42
-58.17
-74.60
-93.05
-112.53
-132.06
-151.01
-169.24
-187.08
-205.06
-223.65
-242.96
-262.50
-281.04
-296.68
-307.14
-310.35
-304.97
-290.81
-268.75
-240.39
-207.47
-171.35
-132.88
-92.66
-51.57
-11.09
26.59
58.98
84.05
100.96
110.36
114.25
115.28
115.88
117.64
121.06
125.80
131.19
136.58
141.57
145.84
149.09
150.90
150.89
148.80
144.67
138.78
131.65
123.92
116.15
108.82
102.27
96.64
91.89
87.78
83.81
79.39
73.96
67.38
60.25
54.09
51.14
53.73
63.65
81.29
105.55
134.03
163.78
192.16
217.42
238.93
256.98
272.45
286.41
299.81
313.31
326.99
340.34
352.34
361.77
367.68
369.75
368.33
364.07
357.32
347.75
334.26
315.46
290.41
259.14
222.77
183.09
141.92
100.60
59.66
19.11
-21.28
-61.78
-102.66
-144.26
-186.89
-230.42
-273.93
-315.57
-353.01
-384.07
-407.51
-423.14
-431.40
-432.68
-426.87
-413.47
-392.28
-364.08
-330.87
-295.51
-260.96
-229.47
-202.29
-179.72
-161.60
-147.52
-136.94
-129.14
-123.06
-117.37
-110.60
-101.53
-89.47
-74.43
-57.09
-38.53
-19.78
-1.38
16.77
35.37
55.18
76.55
99.05
121.60
142.86
161.98
179.03
194.94
211.02
228.31
247.16
267.26
287.85
307.93
326.07
340.06
346.95
343.59
327.67
298.90
259.28
212.26
161.18
107.98
53.17
-2.89
-58.15
-107.81
-144.94
-162.69
-156.85
-127.55
-79.13
-18.49
46.95
110.77
167.97
214.61
247.46
264.06
263.38
246.17
215.03
173.79
126.68
77.71
30.60
-11.12
-43.83
-63.81
-68.00
-55.08
-26.72
11.80
52.25
85.34
103.27
102.04
82.22
48.18
5.92
-39.19
-83.89
-127.10
-169.29
-211.44
-254.43
-298.71
-344.14
-389.70
-433.24
-471.53
-500.69
-517.17
-518.66
-504.65
-476.71
-438.12
-393.46
-347.74
-305.65
-270.60
-244.10
-225.66
-213.16
-203.86
-195.26
-185.74
-174.60
-161.69
-147.03
-130.46
-111.73
-90.67
-67.53
-43.05
-18.32
5.57
27.83
48.15
66.64
83.52
98.89
112.52
123.90
132.59
138.52
142.19
144.59
146.91
150.07
154.37
159.47
164.57
168.87
171.95
173.97
175.80
178.82
184.71
195.09
210.96
232.32
257.81
284.90
310.52
332.08
348.19
358.67
363.93
363.81
356.96
341.11
314.22
275.90
228.10
174.63
119.84
66.94
17.12
-30.43
-77.57
-126.37
-178.39
-234.21
-293.04
-352.24
-407.27
-452.25
-481.45
-491.07
-480.63
-453.00
-413.46
-367.88
-321.31
-277.30
-238.11
-205.15
-179.32
-160.82
-148.73
-140.80
-133.82
-124.43
-110.09
-89.75
-64.10
-35.20
-5.62
22.35
47.30
68.80
87.14
102.73
115.71
125.89
132.96
136.86
138.04
137.51
136.68
136.97
139.44
144.54
151.88
160.46
168.94
176.23
181.80
185.90
189.26
192.61
196.33
200.38
204.63
209.16
214.25
219.69
224.06
224.49
217.16
198.71
167.56
124.51
72.04
13.03
-50.07
-115.12
-179.24
-237.84
-284.91
-314.58
-323.34
-311.61
-283.57
-245.47
-203.29
-161.13
-120.92
-83.26
-48.56
-17.64
8.50
29.43
45.83
59.49
72.56
86.71
102.51
119.27
135.51
149.83
161.37
170.02
176.04
179.54
180.08
176.78
168.86
156.29
140.23
122.83
106.75
94.40
87.31
86.06
90.42
99.72
113.17
129.95
149.09
169.33
189.13
206.73
220.42
228.71
230.50
225.06
212.18
192.13
165.67
133.98
98.30
59.81
19.44
-21.93
-63.20
-102.73
-138.31
-167.51
-188.27
-199.57
-201.75
-196.44
-186.06
-173.18
-159.81
-147.07
-134.97
-122.57
-108.25
-90.16
-66.94
-38.33
-5.68
28.19
59.79
86.29
106.61
121.74
133.82
144.41
153.16
157.46
153.55
138.29
110.81
73.10
29.41
-15.09
-55.59
-88.65
-112.54
-127.20
-133.92
-134.90
-132.67
-129.51
-127.00
-125.87
-126.17
-127.61
-129.74
-131.91
-133.33
-133.10
-130.43
-124.99
-117.08
-107.62
-97.87
-89.06
-82.00
-77.03
-74.06
-72.85
-73.21
-75.07
-78.43
-83.11
-88.71
-94.53
-99.85
-104.18
-107.49
-110.27
-113.38
-117.73
-123.68
-130.74
-137.27
-140.85
-138.85
-129.42
-112.16
-88.46
-61.14
-33.68
-9.21
10.17
23.59
31.23
33.90
32.60
28.39
22.29
15.36
8.73
3.42
0.19
-0.64
0.82
4.15
8.84
14.40
20.40
26.32
31.44
34.92
36.01
34.37
30.16
24.03
16.81
9.21
1.62
-5.88
-13.43
-21.30
-29.80
-39.19
-49.38
-59.65
-68.40
-73.42
-72.46
-64.16
-48.69
-27.95
-5.03
16.70
34.56
47.12
54.21
56.47
54.84
50.18
43.13
34.21
24.02
13.31
3.02
-5.92
-12.82
-17.33
-19.59
-20.18
-19.99
-20.04
-21.14
-23.83
-28.20
-34.06
-41.01
-48.61
-56.50
-64.47
-72.46
-80.55
-88.98
-98.01
-107.67
-117.42
-125.97
-131.32
-131.24
-124.08
-109.50
-88.80
-64.74
-40.69
-19.70
-3.68
7.00
13.19
16.42
18.27
19.85
21.66
23.69
25.77
27.78
29.82
32.16
35.06
38.58
42.50
46.39
49.84
52.64
54.81
56.47
57.55
57.75
56.53
53.40
48.24
41.34
33.35
24.85
16.12
7.00
-2.86
-13.53
-24.41
-34.08
-40.59
-42.21
-37.98
-28.21
-14.36
1.42
16.98
30.69
41.56
49.23
53.61
54.75
52.78
47.99
40.96
32.51
23.55
14.99
7.64
2.14
-1.11
-1.93
-0.55
2.48
6.32
10.06
13.01
14.81
15.48
15.13
13.75
10.98
6.27
-0.90
-10.52
-21.86
-33.45
-43.50
-50.28
-52.50
-49.39
-40.56
-25.85
-5.36
20.34
49.93
81.22
111.48
138.02
158.76
172.56
178.93
177.59
168.09
149.99
123.60
90.99
56.48
26.25
6.80
3.00
16.46
44.90
82.79
122.90
157.92
181.82
190.78
183.57
161.67
129.08
91.69
55.96
27.36
8.77
-0.44
-4.10
-7.67
-16.17
-32.11
-54.55
-79.41
-101.03
-114.11
-115.37
-104.39
-83.27
-55.64
-25.36
4.33
31.15
53.69
71.16
83.28
90.41
93.63
94.73
95.93
99.24
105.97
116.39
129.89
145.35
161.76
178.50
195.42
212.53
229.80
246.84
262.94
277.03
287.77
293.60
292.93
284.51
267.81
243.43
213.08
179.13
144.03
109.59
76.61
44.97
13.97
-17.37
-50.12
-85.26
-123.35
-163.92
-205.02
-243.23
-274.52
-295.58
-305.14
-304.38
-296.43
-285.04
-273.19
-262.45
-253.05
-244.54
-236.40
-228.29
-219.93
-210.89
-200.63
-188.77
-175.43
-161.36
-147.76
-136.02
-127.28
-122.11
-120.41
-121.40
-123.80
-126.21
-127.47
-127.03
-125.24
-123.19
-122.43
-124.44
-130.01
-138.77
-148.97
-157.70
-161.55
-157.58
-144.32
-122.37
-94.39
-64.35
-36.31
-13.39
2.87
12.54
16.68
16.75
14.04
9.57
4.10
-1.82
-7.79
-13.67
-19.38
-24.60
-28.41
-29.34
-25.76
-16.74
-2.81
13.91
30.28
43.27
51.11
53.72
52.42
49.22
45.93
43.76
43.21
44.19
46.16
48.21
49.34
48.84
46.72
43.86
41.74
41.95
45.53
52.64
62.46
73.48
83.97
92.54
98.55
102.30
104.91
107.74
111.76
116.92
122.10
125.41
125.04
119.99
110.53
98.06
84.54
71.80
61.05
52.65
46.17
40.71
35.26
29.09
22.02
14.36
6.77
-0.08
-5.74
-10.14
-13.55
-16.44
-19.31
-22.48
-26.08
-30.07
-34.28
-38.52
-42.58
-46.20
-49.21
-51.53
-53.33
-54.96
-56.79
-58.93
-60.98
-61.99
-60.67
-55.83
-46.90
-34.14
-18.63
-1.98
14.16
28.41
39.85
48.02
52.84
54.49
53.37
50.11
45.52
40.57
36.22
33.28
32.23
33.04
35.27
38.22
41.17
43.69
45.61
46.97
47.86
48.20
47.77
46.28
43.57
39.70
35.08
30.31
25.98
22.58
20.36
19.23
18.86
18.73
18.20
16.66
13.71
9.27
3.84
-1.53
-5.38
-6.17
-2.83
4.81
15.95
29.02
42.19
53.87
63.07
69.36
72.68
73.07
70.59
65.45
58.12
49.47
40.64
32.71
26.51
22.33
20.03
19.20
19.33
20.02
21.00
22.05
22.95
23.38
22.93
21.22
17.95
13.11
6.98
0.10
-6.87
-13.40
-19.24
-24.52
-29.71
-35.43
-42.26
-50.41
-59.51
-68.50
-75.81
-79.68
-78.74
-72.40
-61.15
-46.40
-30.11
-14.25
-0.45
10.28
17.59
21.53
22.49
21.05
17.86
13.68
9.23
5.19
2.06
0.15
-0.51
-0.10
1.06
2.52
3.85
4.58
4.32
2.73
-0.40
-5.16
-11.43
-18.87
-27.00
-35.21
-43.01
-50.13
-56.59
-62.76
-69.12
-76.02
-83.47
-90.89
-97.04
-100.36
-99.26
-92.75
-80.75
-64.27
-45.17
-25.72
-8.05
6.38
16.88
23.51
26.80
27.44
26.09
23.39
19.99
16.62
14.06
12.98
13.85
16.76
21.44
27.45
34.29
41.48
48.52
54.77
59.42
61.46
59.99
54.50
45.16
32.81
18.77
4.41
-9.19
-21.48
-32.46
-42.44
-51.83
-60.86
-69.46
-77.14
-82.97
-85.74
-84.31
-77.95
-66.71
-51.56
-34.14
-16.36
0.04
13.80
24.16
30.78
33.65
33.04
29.52
24.03
17.69
11.63
6.74
3.51
2.06
2.19
3.53
5.69
8.25
10.89
13.35
15.39
16.78
17.25
16.45
14.13
10.27
5.15
-0.63
-6.37
-11.50
-15.78
-19.34
-22.61
-26.13
-30.41
-35.71
-41.91
-48.38
-53.94
-57.09
-56.37
-50.92
-40.85
-27.27
-12.02
2.90
15.87
25.95
32.76
36.37
37.00
35.02
30.89
25.30
19.12
13.25
8.48
5.29
3.83
3.91
5.14
7.04
9.17
11.19
12.92
14.27
15.07
15.04
13.74
10.81
6.14
0.11
-6.52
-12.87
-18.25
-22.49
-25.88
-29.13
-32.90
-37.64
-43.24
-49.06
-53.95
-56.52
-55.54
-50.31
-40.98
-28.51
-14.51
-0.78
11.18
20.40
26.55
29.71
30.24
28.55
25.07
20.24
14.64
8.97
3.99
0.42
-1.31
-1.12
0.62
3.31
6.21
8.75
10.54
11.46
11.56
10.92
9.65
7.78
5.36
2.46
-0.82
-4.36
-8.04
-11.83
-15.68
-19.41
-22.54
-24.22
-23.40
-19.11
-10.93
0.79
14.90
29.78
43.82
55.80
65.09
71.49
75.09
75.97
74.19
69.93
63.69
56.31
48.91
42.51
37.78
34.82
33.22
32.35
31.63
30.73
29.55
28.00
25.94
23.00
18.90
13.52
7.14
0.43
-5.82
-10.99
-14.86
-17.75
-20.36
-23.53
-27.86
-33.39
-39.41
-44.53
-46.91
-44.73
-36.74
-22.71
-3.69
18.03
39.36
57.14
68.91
73.47
71.07
63.14
51.80
39.22
27.26
17.19
9.77
5.37
4.07
5.73
9.96
16.19
23.59
31.20
38.04
43.19
45.95
45.97
43.29
38.27
31.49
23.55
14.89
5.66
-4.26
-15.21
-27.61
-41.83
-58.07
-76.15
-95.31
-114.01
-130.09
-141.13
-145.13
-141.17
-129.74
-112.60
-92.26
-71.20
-51.32
-33.73
-18.89
-6.80
2.75
10.12
15.82
20.47
24.65
28.81
33.10
37.35
41.15
44.00
45.50
45.54
44.26
42.04
39.21
35.94
32.11
27.44
21.73
15.07
7.88
0.73
-5.77
-11.28
-15.73
-19.32
-22.50
-25.84
-29.98
-35.32
-41.78
-48.58
-54.22
-56.85
-54.95
-47.81
-35.94
-20.87
-4.67
10.66
23.66
33.48
39.82
42.71
42.38
39.29
34.10
27.70
21.05
15.03
10.27
7.11
5.58
5.55
6.72
8.69
10.94
12.90
14.08
14.17
13.18
11.29
8.75
5.79
2.53
-0.96
-4.58
-8.24
-11.95
-15.90
-20.31
-25.25
-30.27
-34.30
-35.91
-33.79
-27.36
-17.06
-4.30
9.09
21.35
31.27
38.30
42.41
43.82
42.81
39.67
34.73
28.47
21.46
14.42
8.03
2.84
-0.80
-2.80
-3.28
-2.56
-1.05
0.79
2.49
3.64
3.98
3.44
2.09
0.13
-2.28
-5.05
-8.28
-12.18
-17.08
-23.33
-31.13
-40.34
-50.27
-59.63
-66.71
-69.69
-67.26
-59.01
-45.74
-29.21
-11.75
4.32
17.20
25.96
30.49
31.33
29.38
25.56
20.68
15.42
10.38
6.15
3.30
2.24
3.11
5.71
9.64
14.38
19.53
24.72
29.60
33.68
36.39
37.22
35.99
32.99
28.98
25.02
21.96
20.24
19.65
19.44
18.60
16.33
12.36
7.26
2.45
-0.14
1.42
8.50
21.35
39.02
59.53
80.47
99.74
116.02
128.91
138.74
146.19
151.88
156.33
160.07
163.72
168.18
174.49
183.71
196.69
213.87
234.97
258.59
281.99
301.28
312.29
311.76
298.55
274.09
241.90
206.31
170.98
137.98
107.67
79.38
52.23
25.68
-0.37
-25.87
-51.05
-76.44
-102.73
-130.48
-159.91
-190.99
-223.73
-258.51
-295.95
-336.30
-378.62
-420.28
-457.25
-485.26
-501.20
-504.26
-495.95
-479.24
-457.13
-431.62
-403.48
-372.75
-339.51
-304.40
-268.54
-233.14
-199.11
-166.92
-136.80
-108.95
-83.70
-61.42
-42.37
-26.58
-13.78
-3.55
4.52
10.73
15.24
18.11
19.41
19.28
18.00
15.91
13.37
10.51
7.21
3.12
-2.15
-8.57
-15.35
-20.94
-23.28
-20.48
-11.55
3.17
22.06
42.72
62.70
80.17
94.09
104.15
110.38
112.94
111.96
107.73
100.86
92.39
83.63
75.84
69.93
66.20
64.37
63.79
63.75
63.76
63.63
63.35
62.90
62.00
60.15
56.72
51.33
44.03
35.41
26.41
18.00
10.86
5.22
0.82
-2.91
-6.72
-11.32
-17.20
-24.41
-32.43
-40.10
-45.89
-48.32
-46.42
-40.08
-30.11
-17.96
-5.34
6.18
15.44
21.72
24.68
24.27
20.63
14.18
5.56
-4.37
-14.60
-24.14
-32.19
-38.24
-42.06
-43.68
-43.23
-40.89
-36.96
-31.83
-26.10
-20.51
-15.80
-12.55
-11.03
-11.09
-12.26
-13.83
-15.10
-15.57
-15.14
-14.12
-13.18
-13.11
-14.49
-17.35
-20.99
-23.99
-24.55
-21.07
-12.58
0.82
18.01
37.14
56.11
73.10
86.82
96.61
102.38
104.37
103.01
98.84
92.47
84.58
75.91
67.19
59.02
51.78
45.57
40.25
35.56
31.26
27.17
23.22
19.25
14.96
9.95
3.86
-3.36
-11.39
-19.54
-27.06
-33.42
-38.53
-42.77
-46.86
-51.56
-57.45
-64.74
-73.10
-81.63
-88.89
-93.16
-92.88
-87.11
-75.89
-60.34
-42.36
-24.09
-7.47
6.20
16.29
22.75
25.90
26.26
24.44
21.06
16.79
12.30
8.25
5.25
3.75
3.92
5.62
8.43
11.77
15.17
18.29
20.92
22.92
23.99
23.80
22.04
18.67
13.98
8.65
3.40
-1.15
-4.77
-7.61
-10.12
-12.93
-16.60
-21.46
-27.31
-33.39
-38.38
-40.68
-38.93
-32.40
-21.35
-6.90
9.23
25.23
39.56
51.15
59.47
64.36
65.96
64.59
60.78
55.18
48.54
41.57
34.93
29.20
24.80
21.99
20.78
20.95
22.01
23.40
24.59
25.20
25.04
24.08
22.40
20.06
17.15
13.79
10.13
6.24
2.11
-2.45
-7.62
-13.39
-19.31
-24.47
-27.64
-27.67
-23.92
-16.50
-6.27
5.41
17.07
27.48
35.78
41.56
44.73
45.33
43.59
39.78
34.35
27.91
21.24
15.17
10.41
7.39
6.12
6.23
7.13
8.18
8.92
9.08
8.64
7.64
6.13
4.09
1.47
-1.76
-5.63
-10.16
-15.34
-21.12
-27.20
-32.93
-37.31
-39.11
-37.30
-31.42
-21.88
-9.85
3.07
15.34
25.84
34.08
39.98
43.68
45.30
44.92
42.72
39.12
34.80
30.60
27.33
25.53
25.36
26.67
29.04
32.01
35.17
38.33
41.47
44.70
48.11
51.65
55.13
58.29
60.84
62.56
63.37
63.32
62.71
62.18
62.82
66.09
73.45
86.05
104.22
127.35
154.04
182.53
211.18
238.87
265.05
289.58
312.12
331.77
346.91
355.52
355.91
347.47
331.05
308.82
283.61
258.15
234.54
214.04
197.12
183.62
172.77
163.22
153.26
141.22
126.10
107.93
87.87
67.89
50.16
36.41
27.47
22.99
21.62
21.34
20.14
16.45
9.56
-0.47
-13.21
-28.13
-44.85
-62.98
-81.95
-100.79
-118.37
-133.83
-147.01
-158.77
-170.97
-185.98
-205.92
-231.51
-261.11
-290.50
-313.61
-324.39
-318.94
-297.03
-262.29
-220.74
-178.69
-140.78
-109.42
-85.32
-68.70
-60.22
-60.96
-71.62
-91.47
-117.79
-146.27
-172.22
-191.91
-203.75
-208.71
-209.70
-210.34
-213.70
-221.09
-231.64
-242.42
-248.93
-245.94
-228.52
-193.46
-140.82
-74.90
-4.17
60.71
109.81
136.91
140.89
125.11
95.00
55.22
8.30
-44.66
-101.61
-157.31
-202.78
-227.49
-223.31
-188.41
-129.06
-57.94
10.26
64.06
98.89
117.53
126.99
133.95
141.00
145.94
144.33
133.43
115.14
95.56
81.58
76.58
77.87
77.87
68.52
45.92
12.43
-25.06
-59.32
-86.55
-107.13
-123.37
-136.17
-143.58
-142.18
-130.48
-111.27
-91.18
-77.22
-72.90
-76.42
-82.29
-85.06
-82.52
-76.14
-68.68
-61.30
-52.32
-38.97
-20.63
-0.91
13.15
14.49
0.07
-27.24
-60.07
-90.29
-112.48
-124.94
-128.28
-123.13
-109.12
-86.17
-56.78
-27.18
-6.00
-0.54
-13.19
-39.98
-72.49
-101.90
-122.77
-134.55
-140.22
-143.39
-145.90
-147.21
-145.84
-141.17
-134.46
-128.20
-124.56
-123.81
-123.94
-121.53
-113.58
-99.07
-79.58
-58.65
-40.27
-27.39
-21.06
-20.49
-23.95
-29.72
-36.80
-45.10
-55.02
-66.90
-80.58
-95.24
-109.64
-122.43
-132.53
-139.25
-142.32
-141.79
-137.85
-130.81
-120.98
-108.77
-94.65
-79.22
-63.19
-47.31
-32.26
-18.56
-6.42
4.27
13.76
22.29
29.78
35.73
39.20
39.25
35.46
28.51
20.39
14.15
13.01
19.43
34.22
56.33
83.14
111.33
137.59
159.30
174.78
183.23
184.62
179.57
169.24
155.14
139.04
122.64
107.38
94.33
84.01
76.53
71.58
68.65
67.22
66.84
67.15
67.77
68.16
67.62
65.38
60.90
54.16
45.64
36.25
26.88
18.14
10.11
2.41
-5.66
-14.86
-25.75
-38.41
-52.15
-65.33
-75.53
-80.02
-76.69
-64.77
-45.28
-20.73
5.55
30.44
51.62
67.83
78.63
84.08
84.47
80.32
72.52
62.32
51.19
40.58
31.63
24.99
20.87
19.11
19.36
21.19
24.14
27.69
31.25
34.20
35.91
35.82
33.61
29.20
22.93
15.37
7.30
-0.60
-7.92
-14.60
-21.00
-27.71
-35.37
-44.32
-54.35
-64.34
-72.38
-76.06
-73.15
-62.29
-43.59
-18.65
9.76
38.51
64.82
86.82
103.65
115.27
122.21
125.18
125.00
122.50
118.50
113.88
109.54
106.32
105.05
106.43
110.99
119.03
130.42
144.51
160.14
175.89
190.47
203.24
214.47
225.20
236.77
250.12
265.31
281.38
296.68
309.21
317.19
319.41
315.69
307.12
296.02
285.23
276.91
271.35
266.61
259.16
245.55
224.23
196.27
164.79
133.28
103.65
75.36
45.68
11.24
-29.90
-76.69
-124.49
-165.96
-193.23
-200.56
-186.68
-155.58
-115.51
-76.32
-46.40
-30.55
-29.59
-41.48
-63.05
-91.45
-124.56
-160.61
-197.77
-234.02
-267.21
-295.12
-315.31
-324.98
-321.26
-302.43
-269.50
-227.25
-183.93
-149.07
-130.41
-131.17
-149.25
-178.42
-210.97
-240.32
-262.26
-274.99
-277.98
-271.16
-254.68
-229.45
-197.73
-162.95
-129.02
-99.05
-74.47
-54.76
-38.10
-22.34
-5.89
11.84
30.74
50.23
69.65
88.14
104.37
116.28
121.37
117.34
102.90
78.46
46.16
9.42
-27.96
-62.63
-92.28
-115.66
-132.38
-142.47
-146.11
-143.55
-135.32
-122.43
-106.45
-89.43
-73.33
-59.40
-47.77
-37.46
-26.88
-14.54
0.30
17.40
35.83
54.45
72.35
89.02
104.17
117.44
128.17
135.56
138.87
137.85
132.94
125.22
116.14
107.14
99.26
93.02
88.45
85.30
83.24
81.96
81.11
80.31
79.13
77.08
73.81
69.13
63.13
56.04
48.23
40.07
31.88
23.92
16.31
9.05
2.05
-4.72
-11.12
-16.63
-20.47
-21.78
-19.99
-15.03
-7.50
1.59
11.06
19.90
27.48
33.49
37.94
41.04
43.09
44.39
45.13
45.27
44.51
42.47
38.93
34.08
28.59
23.35
19.20
16.53
15.29
15.13
15.67
16.75
18.42
20.76
23.70
26.96
30.09
32.63
34.23
34.72
33.99
31.92
28.37
23.26
16.71
9.25
1.84
-4.28
-7.88
-8.10
-4.76
1.61
9.93
18.83
27.02
33.49
37.62
39.25
38.64
36.39
33.22
29.71
25.99
21.75
16.42
9.62
1.61
-6.60
-13.59
-18.12
-19.76
-19.16
-17.68
-16.85
-17.55
-19.67
-22.18
-23.68
-23.19
-20.56
-16.69
-13.13
-11.49
-12.76
-16.92
-22.73
-27.97
-29.88
-25.81
-14.00
5.62
30.87
57.41
79.57
92.02
91.61
78.71
57.26
33.35
12.94
-0.42
-6.62
-8.55
-10.32
-15.16
-24.09
-35.72
-47.23
-55.76
-59.63
-58.80
-54.51
-48.58
-42.66
-37.74
-34.11
-31.66
-30.28
-30.01
-31.09
-33.71
-37.85
-43.20
-49.41
-56.28
-63.90
-72.37
-81.43
-90.01
-96.23
-97.84
-93.08
-81.46
-64.17
-43.85
-23.78
-6.91
4.96
11.42
13.21
11.63
7.93
2.86
-3.32
-10.61
-18.90
-27.72
-36.15
-43.11
-47.72
-49.62
-49.08
-46.94
-44.32
-42.24
-41.37
